6.452358	-12.934151	-6.110723	-6.864713
6.10597	-12.7287235	-5.9729145	-7.2366155
5.759582	-12.523296	-5.835106	-7.608518
5.413194	-12.3178685	-5.6972975	-7.9804205
5.066806	-12.112441	-5.559489	-8.352323
4.761847	-11.92531325	-5.40290325	-8.75353775
4.456888	-11.7381855	-5.2463175	-9.1547525
4.151929	-11.55105775	-5.08973175	-9.55596725
3.84697	-11.36393	-4.933146	-9.957182
3.58328525	-11.19532875	-4.7603085	-10.3827445
3.3196005	-11.0267275	-4.587471	-10.808307
3.05591575	-10.85812625	-4.4146335	-11.2338695
2.792231	-10.689525	-4.241796	-11.659432
2.568411	-10.53907025	-4.05539225	-12.104194
2.344591	-10.3886155	-3.8689885	-12.548956
2.120771	-10.23816075	-3.68258475	-12.993718
1.896951	-10.087706	-3.496181	-13.43848
1.71066875	-9.95456325	-3.298852	-13.89747875
1.5243865	-9.8214205	-3.101523	-14.3564775
1.33810425	-9.68827775	-2.904194	-14.81547625
1.151822	-9.555135	-2.706865	-15.274475
1.00012125	-9.4381475	-2.501103	-15.74311125
0.8484205	-9.32116	-2.295341	-16.2117475
0.69671975	-9.2041725	-2.089579	-16.68038375
0.545019	-9.087185	-1.883817	-17.14902
0.42455275	-8.984985	-1.67190275	-17.623157
0.3040865	-8.882785	-1.4599885	-18.097294
0.18362025	-8.780585	-1.24807425	-18.571431
0.063154	-8.678385	-1.03616	-19.045568
-0.0296175	-8.58948525	-0.82012775	-19.52157675
-0.122389	-8.5005855	-0.6040955	-19.9975855
-0.2151605	-8.41168575	-0.38806325	-20.47359425
-0.307932	-8.322786	-0.172031	-20.949603
-0.37658775	-8.2456535	0.046344	-21.42437225
-0.4452435	-8.168521	0.264719	-21.8991415
-0.51389925	-8.0913885	0.483094	-22.37391075
-0.582555	-8.014256	0.701469	-22.84868
-0.63058975	-7.94737075	0.92067075	-23.3196025
-0.6786245	-7.8804855	1.1398725	-23.790525
-0.72665925	-7.81360025	1.35907425	-24.2614475
-0.774694	-7.746715	1.578276	-24.73237
-0.805431	-7.68861325	1.79703725	-25.19731125
-0.836168	-7.6305115	2.0157985	-25.6622525
-0.866905	-7.57240975	2.23455975	-26.12719375
-0.897642	-7.514308	2.453321	-26.592135
-0.91416675	-7.46361475	2.670606	-27.049391
-0.9306915	-7.4129215	2.887891	-27.506647
-0.94721625	-7.36222825	3.105176	-27.963903
-0.963741	-7.311535	3.322461	-28.421159
-0.9688625	-7.2669865	3.5374435	-28.86940925
-0.973984	-7.222438	3.752426	-29.3176595
-0.9791055	-7.1778895	3.9674085	-29.76590975
-0.984227	-7.133341	4.182391	-30.21416
-0.98045325	-7.09379675	4.394431	-30.6524165
-0.9766795	-7.0542525	4.606471	-31.090673
-0.97290575	-7.01470825	4.818511	-31.5289295
-0.969132	-6.975164	5.030551	-31.967186
-0.9586625	-6.939613	5.23916925	-32.394744
-0.948193	-6.904062	5.4477875	-32.822302
-0.9377235	-6.868511	5.65640575	-33.24986
-0.927254	-6.83296	5.865024	-33.677418
-0.911983	-6.80052325	6.06987775	-34.093806
-0.896712	-6.7680865	6.2747315	-34.510194
-0.881441	-6.73564975	6.47958525	-34.926582
-0.86617	-6.703213	6.684439	-35.34297
-0.8476985	-6.6731375	6.88529825	-35.7479055
-0.829227	-6.643062	7.0861575	-36.152841
-0.8107555	-6.6129865	7.28701675	-36.5577765
-0.792284	-6.582911	7.487876	-36.962712
-0.771939	-6.55456525	7.6846025	-37.35605975
-0.751594	-6.5262195	7.881329	-37.7494075
-0.731249	-6.49787375	8.0780555	-38.14275525
-0.710904	-6.469528	8.274782	-38.536103
-0.68976025	-6.442392	8.4673085	-38.91783825
-0.6686165	-6.415256	8.659835	-39.2995735
-0.64747275	-6.38812	8.8523615	-39.68130875
-0.626329	-6.360984	9.044888	-40.063044
-0.60523475	-6.33463925	9.23320025	-40.43322
-0.5841405	-6.3082945	9.4215125	-40.803396
-0.56304625	-6.28194975	9.60982475	-41.173572
-0.541952	-6.255605	9.798137	-41.543748
-0.52155525	-6.22972275	9.9822595	-41.902469
-0.5011585	-6.2038405	10.166382	-42.26119
-0.48076175	-6.17795825	10.3505045	-42.619911
-0.460365	-6.152076	10.534627	-42.978632
-0.441141	-6.12640775	10.71460875	-43.32603075
-0.421917	-6.1007395	10.8945905	-43.6734295
-0.402693	-6.07507125	11.07457225	-44.02082825
-0.383469	-6.049403	11.254554	-44.368227
-0.3657445	-6.0237675	11.43045875	-44.70444575
-0.34802	-5.998132	11.6063635	-45.0406645
-0.3302955	-5.9724965	11.78226825	-45.37688325
-0.312571	-5.946861	11.958173	-45.713102
-0.2965495	-5.92113475	12.13006875	-46.03827725
-0.280528	-5.8954085	12.3019645	-46.3634525
-0.2645065	-5.86968225	12.47386025	-46.68862775
-0.248485	-5.843956	12.645756	-47.013803
-0.23426925	-5.81806275	12.81370875	-47.328056
-0.2200535	-5.7921695	12.9816615	-47.642309
-0.20583775	-5.76627625	13.14961425	-47.956562
-0.191622	-5.740383	13.317567	-48.270815
-0.179234	-5.714285	13.4816355	-48.57424325
-0.166846	-5.688187	13.645704	-48.8776715
-0.154458	-5.662089	13.8097725	-49.18109975
-0.14207	-5.635991	13.973841	-49.484528
-0.13146975	-5.60968075	14.134072	-49.7771985
-0.1208695	-5.5833705	14.294303	-50.069869
-0.11026925	-5.55706025	14.454534	-50.3625395
-0.099669	-5.53075	14.614765	-50.65521
-0.09076975	-5.504243	14.77119175	-50.937159
-0.0818705	-5.477736	14.9276185	-51.219108
-0.07297125	-5.451229	15.08404525	-51.501057
-0.064072	-5.424722	15.240472	-51.783006
-0.056754	-5.39805075	15.3931105	-52.05423575
-0.049436	-5.3713795	15.545749	-52.3254655
-0.042118	-5.34470825	15.6983875	-52.59669525
-0.0348	-5.318037	15.851026	-52.867925
-0.02892225	-5.29124525	15.9998765	-53.1284045
-0.0230445	-5.2644535	16.148727	-53.388884
-0.01716675	-5.23766175	16.2975775	-53.6493635
-0.011289	-5.21087	16.446428	-53.909843
-0.00669825	-5.184009	16.591473	-54.159511
-0.0021075	-5.157148	16.736518	-54.409179
0.00248325	-5.130287	16.881563	-54.658847
0.007074	-5.103426	17.026608	-54.908515
0.010535	-5.0765505	17.167814	-55.147281
0.013996	-5.049675	17.30902	-55.386047
0.017457	-5.0227995	17.450226	-55.624813
0.020918	-4.995924	17.591432	-55.863579
0.02340575	-4.96908875	17.72874975	-56.09132725
0.0258935	-4.9422535	17.8660675	-56.3190755
0.02838125	-4.91541825	18.00338525	-56.54682375
0.030869	-4.888583	18.140703	-56.774572
0.03253325	-4.8618425	18.27406875	-56.991165
0.0341975	-4.835102	18.4074345	-57.207758
0.03586175	-4.8083615	18.54080025	-57.424351
0.037526	-4.781621	18.674166	-57.640944
0.03850725	-4.7550255	18.80350275	-57.8462265
0.0394885	-4.72843	18.9328395	-58.051509
0.04046975	-4.7018345	19.06217625	-58.2567915
0.041451	-4.675239	19.191513	-58.462074
0.0418785	-4.64883525	19.316733	-58.6558765
0.042306	-4.6224315	19.441953	-58.849679
0.0427335	-4.59602775	19.567173	-59.0434815
0.043161	-4.569624	19.692393	-59.237284
0.043151	-4.543453	19.81339775	-59.41942775
0.043141	-4.517282	19.9344025	-59.6015715
0.043131	-4.491111	20.05540725	-59.78371525
0.043121	-4.46494	20.176412	-59.965859
0.04277625	-4.439038	20.293096	-60.1361595
0.0424315	-4.413136	20.40978	-60.30646
0.04208675	-4.387234	20.526464	-60.4767605
0.041742	-4.361332	20.643148	-60.647061
0.04115125	-4.33572925	20.75539775	-60.80533125
0.0405605	-4.3101265	20.8676475	-60.9636015
0.03996975	-4.28452375	20.97989725	-61.12187175
0.039379	-4.258921	21.092147	-61.280142
0.03861875	-4.2336425	21.1998455	-61.426197
0.0378585	-4.208364	21.307544	-61.572252
0.03709825	-4.1830855	21.4152425	-61.718307
0.036338	-4.157807	21.522941	-61.864362
0.03547125	-4.1328725	21.62596725	-61.99802125
0.0346045	-4.107938	21.7289935	-62.1316805
0.03373775	-4.0830035	21.83201975	-62.26533975
0.032871	-4.058069	21.935046	-62.398999
0.03195025	-4.033493	22.03327675	-62.52009025
0.0310295	-4.008917	22.1315075	-62.6411815
0.03010875	-3.984341	22.22973825	-62.76227275
0.029188	-3.959765	22.327969	-62.883364
0.02825425	-3.935558	22.421281	-62.991725
0.0273205	-3.911351	22.514593	-63.100086
0.02638675	-3.887144	22.607905	-63.208447
0.025453	-3.862937	22.701217	-63.316808
0.02453875	-3.83910525	22.7894875	-63.41229025
0.0236245	-3.8152735	22.877758	-63.5077725
0.02271025	-3.79144175	22.9660285	-63.60325475
0.021796	-3.76761	23.054299	-63.698737
0.02092525	-3.74415625	23.137407	-63.78120675
0.0200545	-3.7207025	23.220515	-63.8636765
0.01918375	-3.69724875	23.303623	-63.94614625
0.018313	-3.673795	23.386731	-64.028616
0.01750275	-3.65071875	23.46455925	-64.09795625
0.0166925	-3.6276425	23.5423875	-64.1672965
0.01588225	-3.60456625	23.62021575	-64.23663675
0.015072	-3.58149	23.698044	-64.305977
0.0143335	-3.55878875	23.77047825	-64.3620895
0.013595	-3.5360875	23.8429125	-64.418202
0.0128565	-3.51338625	23.91534675	-64.4743145
0.012118	-3.490685	23.987781	-64.530427
0.0114575	-3.46835375	24.05471275	-64.57323375
0.010797	-3.4460225	24.1216445	-64.6160405
0.0101365	-3.42369125	24.18857625	-64.65884725
0.009476	-3.40136	24.255508	-64.701654
0.008896	-3.37939175	24.316834	-64.731097
0.008316	-3.3574235	24.37816	-64.76054
0.007736	-3.33545525	24.439486	-64.789983
0.007156	-3.313487	24.500812	-64.819426
0.00665575	-3.29187425	24.556436	-64.835469
0.0061555	-3.2702615	24.61206	-64.851512
0.00565525	-3.24864875	24.667684	-64.867555
0.005155	-3.227036	24.723308	-64.883598
0.0047315	-3.205769	24.7731405	-64.886227
0.004308	-3.184502	24.822973	-64.888856
0.0038845	-3.163235	24.8728055	-64.891485
0.003461	-3.141968	24.922638	-64.894114
0.0031095	-3.1210375	24.96659725	-64.8833365
0.002758	-3.100107	25.0105565	-64.872559
0.0024065	-3.0791765	25.05451575	-64.8617815
0.002055	-3.058246	25.098475	-64.851004
0.00176975	-3.03764175	25.136487	-64.82684925
0.0014845	-3.0170375	25.174499	-64.8026945
0.00119925	-2.99643325	25.212511	-64.77853975
0.000914	-2.975829	25.250523	-64.754385
0.00068825	-2.95553975	25.2825225	-64.7169035
0.0004625	-2.9352505	25.314522	-64.679422
0.00023675	-2.91496125	25.3465215	-64.6419405
1.1e-05	-2.894672	25.378521	-64.604459
-0.000162	-2.8746875	25.404451	-64.55372225
-0.000335	-2.854703	25.430381	-64.5029855
-0.000508	-2.8347185	25.456311	-64.45224875
-0.000681	-2.814734	25.482241	-64.401512
-0.00080825	-2.79504325	25.50205225	-64.3376105
-0.0009355	-2.7753525	25.5218635	-64.273709
-0.00106275	-2.75566175	25.54167475	-64.2098075
-0.00119	-2.735971	25.561486	-64.145906
-0.001278	-2.71656275	25.575138	-64.06894775
-0.001366	-2.6971545	25.58879	-63.9919895
-0.001454	-2.67774625	25.602442	-63.91503125
-0.001542	-2.658338	25.616094	-63.838073
-0.0015975	-2.639202	25.62355375	-63.74818225
-0.001653	-2.620066	25.6310135	-63.6582915
-0.0017085	-2.60093	25.63847325	-63.56840075
-0.001764	-2.581794	25.645933	-63.47851
-0.0017925	-2.562919	25.6471745	-63.3758245
-0.001821	-2.544044	25.648416	-63.273139
-0.0018495	-2.525169	25.6496575	-63.1704535
-0.001878	-2.506294	25.650899	-63.067768
-0.0018855	-2.48767	25.64590225	-62.9524365
-0.001893	-2.469046	25.6409055	-62.837105
-0.0019005	-2.450422	25.63590875	-62.7217735
-0.001908	-2.431798	25.630912	-62.606442
-0.0018985	-2.41341425	25.6196625	-62.4786205
-0.001889	-2.3950305	25.608413	-62.350799
-0.0018795	-2.37664675	25.5971635	-62.2229775
-0.00187	-2.358263	25.585914	-62.095156
-0.00184825	-2.340109	25.5684005	-61.95500525
-0.0018265	-2.321955	25.550887	-61.8148545
-0.00180475	-2.303801	25.5333735	-61.67470375
-0.001783	-2.285647	25.51586	-61.534553
-0.00175225	-2.2677125	25.49207375	-61.3822335
-0.0017215	-2.249778	25.4682875	-61.229914
-0.00169075	-2.2318435	25.44450125	-61.0775945
-0.00166	-2.213909	25.420715	-60.925275
-0.00162375	-2.196184	25.39064725	-60.76094275
-0.0015875	-2.178459	25.3605795	-60.5966105
-0.00155125	-2.160734	25.33051175	-60.43227825
-0.001515	-2.143009	25.300444	-60.267946
-0.00147525	-2.125483	25.264084	-60.091748
-0.0014355	-2.107957	25.227724	-59.91555
-0.00139575	-2.090431	25.191364	-59.739352
-0.001356	-2.072905	25.155004	-59.563154
-0.00131475	-2.05556775	25.11233725	-59.37522275
-0.0012735	-2.0382305	25.0696705	-59.1872915
-0.00123225	-2.02089325	25.02700375	-58.99936025
-0.001191	-2.003556	24.984337	-58.811429
-0.00115025	-1.9863975	24.93534175	-58.61187675
-0.0011095	-1.969239	24.8863465	-58.4123245
-0.00106875	-1.9520805	24.83735125	-58.21277225
-0.001028	-1.934922	24.788356	-58.01322
-0.00098875	-1.9179315	24.73300125	-57.80213375
-0.0009495	-1.900941	24.6776465	-57.5910475
-0.00091025	-1.8839505	24.62229175	-57.37996125
-0.000871	-1.86696	24.566937	-57.168875
-0.00083425	-1.85012725	24.5051795	-56.94631025
-0.0007975	-1.8332945	24.443422	-56.7237455
-0.00076075	-1.81646175	24.3816645	-56.50118075
-0.000724	-1.799629	24.319907	-56.278616
-0.00069	-1.782944	24.2516885	-56.04459125
-0.000656	-1.766259	24.18347	-55.8105665
-0.000622	-1.749574	24.1152515	-55.57654175
-0.000588	-1.732889	24.047033	-55.342517
-0.0005575	-1.71634125	23.97227825	-55.097009
-0.000527	-1.6997935	23.8975235	-54.851501
-0.0004965	-1.68324575	23.82276875	-54.605993
-0.000466	-1.666698	23.748014	-54.360485
-0.00043875	-1.65027775	23.66662675	-54.103423
-0.0004115	-1.6338575	23.5852395	-53.846361
-0.00038425	-1.61743725	23.50385225	-53.589299
-0.000357	-1.601017	23.422465	-53.332237
-0.0003335	-1.5847145	23.33432825	-53.063501
-0.00031	-1.568412	23.2461915	-52.794765
-0.0002865	-1.5521095	23.15805475	-52.526029
-0.000263	-1.535807	23.069918	-52.257293
-0.000243	-1.51961325	22.97489075	-51.976709
-0.000223	-1.5034195	22.8798635	-51.696125
-0.000203	-1.48722575	22.78483625	-51.415541
-0.000183	-1.471032	22.689809	-51.134957
-0.00016625	-1.4549385	22.5877265	-50.8422985
-0.0001495	-1.438845	22.485644	-50.54964
-0.00013275	-1.4227515	22.3835615	-50.2569815
-0.000116	-1.406658	22.281479	-49.964323
-0.00010225	-1.39065775	22.17215375	-49.659311
-8.85e-05	-1.3746575	22.0628285	-49.354299
-7.475e-05	-1.35865725	21.95350325	-49.049287
-6.1e-05	-1.342657	21.844178	-48.744275
-4.975e-05	-1.326744	21.7274005	-48.42658375
-3.85e-05	-1.310831	21.610623	-48.1088925
-2.725e-05	-1.294918	21.4938455	-47.79120125
-1.6e-05	-1.279005	21.377068	-47.47351
-7.5e-06	-1.26317475	21.252611	-47.142773
1e-06	-1.2473445	21.128154	-46.812036
9.5e-06	-1.23151425	21.003697	-46.481299
1.8e-05	-1.215684	20.87924	-46.150562
2.45e-05	-1.199935	20.746864	-45.80638475
3.1e-05	-1.184186	20.614488	-45.4622075
3.75e-05	-1.168437	20.482112	-45.11803025
4.4e-05	-1.152688	20.349736	-44.773853
4.85e-05	-1.13702075	20.2091965	-44.415828
5.3e-05	-1.1213535	20.068657	-44.057803
5.75e-05	-1.10568625	19.9281175	-43.699778
6.2e-05	-1.090019	19.787578	-43.341753
6.5e-05	-1.07443725	19.638636	-42.969482
6.8e-05	-1.0588555	19.489694	-42.597211
7.1e-05	-1.04327375	19.340752	-42.22494
7.4e-05	-1.027692	19.19181	-41.852669
7.575e-05	-1.01220375	19.034245	-41.465789
7.75e-05	-0.9967155	18.87668	-41.078909
7.925e-05	-0.98122725	18.719115	-40.692029
8.1e-05	-0.965739	18.56155	-40.305149
8.175e-05	-0.95035625	18.39517625	-39.90336575
8.25e-05	-0.9349735	18.2288025	-39.5015825
8.325e-05	-0.91959075	18.06242875	-39.09979925
8.4e-05	-0.904208	17.896055	-38.698016
8.375e-05	-0.888948	17.720742	-38.281143
8.35e-05	-0.873688	17.545429	-37.86427
8.325e-05	-0.858428	17.370116	-37.447397
8.3e-05	-0.843168	17.194803	-37.030524
8.225e-05	-0.82805275	17.010497	-36.59853
8.15e-05	-0.8129375	16.826191	-36.166536
8.075e-05	-0.79782225	16.641885	-35.734542
8e-05	-0.782707	16.457579	-35.302548
7.9e-05	-0.767766	16.26433125	-34.855609
7.8e-05	-0.752825	16.0710835	-34.40867
7.7e-05	-0.737884	15.87783575	-33.961731
7.6e-05	-0.722943	15.684588	-33.514792
7.45e-05	-0.70821075	15.4825835	-33.05335075
7.3e-05	-0.6934785	15.280579	-32.5919095
7.15e-05	-0.67874625	15.0785745	-32.13046825
7e-05	-0.664014	14.87657	-31.669027
6.825e-05	-0.64953325	14.66616075	-31.193859
6.65e-05	-0.6350525	14.4557515	-30.718691
6.475e-05	-0.62057175	14.24534225	-30.243523
6.3e-05	-0.606091	14.034933	-29.768355
6.125e-05	-0.5919105	13.816673	-29.28063625
5.95e-05	-0.57773	13.598413	-28.7929175
5.775e-05	-0.5635495	13.380153	-28.30519875
5.6e-05	-0.549369	13.161893	-27.81748
5.4e-05	-0.535545	12.93657425	-27.318858
5.2e-05	-0.521721	12.7112555	-26.820236
5e-05	-0.507897	12.48593675	-26.321614
4.8e-05	-0.494073	12.260618	-25.822992
4.625e-05	-0.480668	12.0293065	-25.31565625
4.45e-05	-0.467263	11.797995	-24.8083205
4.275e-05	-0.453858	11.5666835	-24.30098475
4.1e-05	-0.440453	11.335372	-23.793649
3.95e-05	-0.427535	11.099441	-23.28039425
3.8e-05	-0.414617	10.86351	-22.7671395
3.65e-05	-0.401699	10.627579	-22.25388475
3.5e-05	-0.388781	10.391648	-21.74063
3.35e-05	-0.376423	10.15280625	-21.2249105
3.2e-05	-0.364065	9.9139645	-20.709191
3.05e-05	-0.351707	9.67512275	-20.1934715
2.9e-05	-0.339349	9.436281	-19.677752
2.75e-05	-0.3276265	9.19659225	-19.1637155
2.6e-05	-0.315904	8.9569035	-18.649679
2.45e-05	-0.3041815	8.71721475	-18.1356425
2.3e-05	-0.292459	8.477526	-17.621606
2.175e-05	-0.28144675	8.23941325	-17.1140995
2.05e-05	-0.2704345	8.0013005	-16.606593
1.925e-05	-0.25942225	7.76318775	-16.0990865
1.8e-05	-0.24841	7.525075	-15.59158
1.675e-05	-0.2381805	7.29130375	-15.096112
1.55e-05	-0.227951	7.0575325	-14.600644
1.425e-05	-0.2177215	6.82376125	-14.105176
1.3e-05	-0.207492	6.58999	-13.609708
1.225e-05	-0.19811025	6.36362025	-13.132344
1.15e-05	-0.1887285	6.1372505	-12.65498
1.075e-05	-0.17934675	5.91088075	-12.177616
1e-05	-0.169965	5.684511	-11.700252
9e-06	-0.161483	5.468796	-11.2474095
8e-06	-0.153001	5.253081	-10.794567
7e-06	-0.144519	5.037366	-10.3417245
6e-06	-0.136037	4.821651	-9.888882
5.5e-06	-0.12848875	4.61981625	-9.46688025
5e-06	-0.1209405	4.4179815	-9.0448785
4.5e-06	-0.11339225	4.21614675	-8.62287675
4e-06	-0.105844	4.014312	-8.200875
3.5e-06	-0.09923825	3.82914975	-7.81512075
3e-06	-0.0926325	3.6439875	-7.4293665
2.5e-06	-0.08602675	3.45882525	-7.04361225
2e-06	-0.079421	3.273663	-6.657858
1.5e-06	-0.073739	3.10712275	-6.312026
1e-06	-0.068057	2.9405825	-5.966194
5e-07	-0.062375	2.77404225	-5.620362
-0.0	-0.056693	2.607502	-5.27453
-2.5e-07	-0.05189125	2.46055825	-4.97031075
-5e-07	-0.0470895	2.3136145	-4.6660915
-7.5e-07	-0.04228775	2.16667075	-4.36187225
-1e-06	-0.037486	2.019727	-4.057653
-1.5e-06	-0.0335025	1.89250975	-3.79502675
-2e-06	-0.029519	1.7652925	-3.5324005
-2.5e-06	-0.0255355	1.63807525	-3.26977425
-3e-06	-0.021552	1.510858	-3.007148
-3e-06	-0.0183115	1.40283875	-2.7847715
-3e-06	-0.015071	1.2948195	-2.562395
-3e-06	-0.0118305	1.18680025	-2.3400185
-3e-06	-0.00859	1.078781	-2.117642
-3.25e-06	-0.00601125	0.98893725	-1.933187
-3.5e-06	-0.0034325	0.8990935	-1.748732
-3.75e-06	-0.00085375	0.80924975	-1.564277
-4e-06	0.001725	0.719406	-1.379822
-4e-06	0.003728	0.64635875	-1.2302595
-4e-06	0.005731	0.5733115	-1.080697
-4e-06	0.007734	0.50026425	-0.9311345
-4e-06	0.009737	0.427217	-0.781572
-4e-06	0.01124875	0.36934675	-0.6634095
-4e-06	0.0127605	0.3114765	-0.545247
-4e-06	0.01427225	0.25360625	-0.4270845
-4e-06	0.015784	0.195736	-0.308922
-4e-06	0.016887	0.1512775	-0.21839825
-4e-06	0.01799	0.106819	-0.1278745
-4e-06	0.019093	0.0623605	-0.03735075
-4e-06	0.020196	0.017902	0.053173
-4e-06	0.0209675	-0.01498125	0.1199365
-4e-06	0.021739	-0.0478645	0.1867
-4e-06	0.0225105	-0.08074775	0.2534635
-4e-06	0.023282	-0.113631	0.320227