-8.7890625E-05	0.00017578125	-0.00017578125	8.7890625E-05	0	-1.68737886667421E-06	0	0
-8.7890625E-05	0.00017578125	-0.00017578125	8.7890625E-05	0	-5.44563179699403E-06	0	0
-8.7890625E-05	0.00017578125	-0.00017578125	8.7890625E-05	0	6.50407854063512E-06	0	0
-8.7890625E-05	0.00017578125	-0.00017578125	8.7890625E-05	0	-1.36524290121822E-06	0	0
-8.7890625E-05	0.00017578125	-0.00017578125	8.7890625E-05	0	2.83786445758844E-06	0	0
-8.7890625E-05	0.00017578125	-0.00017578125	8.7890625E-05	0	-3.2366994624387E-06	0	0
0.305947265625	0.2485546875	-0.018193359375	8.7890625E-05	0.0420570438828055	-0.0104920144143251	0.000164473420077098	0
-38.0858203125	-20.263359375	1.08333984375	0	-0.0810033434656656	0.0467622998525265	0.00323864761803932	0
-64.816875	-39.7153125	3.088740234375	-0.00193359375	-0.00275173143634866	0.0128757285198521	0.00390778537752291	9.83128286955908E-05
-40.8371484375	-31.76982421875	6.242783203125	0.30814453125	0.0769603223418826	-0.0369849824270852	0.00811216594038352	-0.00289972990276386
-2.166328125	-10.484033203125	5.824775390625	-7.997607421875	1.64135944303764E-06	2.56941781970845E-05	4.22151512826128E-05	-1.11213607121709E-05
-2.166328125	-10.484296875	5.82732421875	-7.99751953125	0	4.90873852123405E-06	0	0
0.21638671875	-3.97037109375	-13.870283203125	-46.1334375	-0.00209569387279361	-0.00861715241575547	-0.0427840127179924	0.0683970740110135
-0.006591796875	-0.045263671875	-32.9625	-66.200625	-5.00537931087085E-05	-0.00525945254876835	-0.0188857578681329	-4.5620588631719E-05
0.417919921875	4.09517578125	-32.658310546875	-47.1793359375	0.00392390751560359	-0.0114960968788435	0.023470074792537	-0.0653077440828669
-7.9976953125	5.54484375	-12.57416015625	-6.452578125	0	-1.24252443818737E-06	7.36310778185108E-07	9.8174770424681E-07
-7.9976953125	5.54484375	-12.575302734375	-6.452490234375	0	9.18854491943499E-06	0	3.80427235395639E-06
-23.7357421875	-1.5721875	-7.083017578125	0.3515625	-0.0996703096540223	0.0500189410652077	0.0195348771783346	-0.0123338958259551
-62.051572265625	-26.15783203125	-1.531669921875	-0.04166015625	-0.0306477242971327	0.0319215879628166	0.00612572217930313	-1.70271867455306E-06
-60.348251953125	-35.9068359375	1.841044921875	-0.041484375	0.0375615904654436	-0.00356112105926864	0.00666862865975161	-1.2501943421268E-05
-18.67974609375	-19.512509765625	7.564306640625	-0.896484375	0.100845691753124	-0.0535690481424193	-0.000715740095819561	0.0289949673768411
-6.45240234375	-12.575302734375	5.54484375	-7.99734375	0	0	0	0
-6.45240234375	-12.575302734375	5.54484375	-7.997607421875	0	0	0	0
0.077958984375	-2.738935546875	-19.79630859375	-54.79734375	-0.00202195541631994	-0.00709763706669959	-0.0381237944242037	0.0512793210397661
-0.024873046875	0.754453125	-35.168994140625	-65.044248046875	-0.000161696914851025	-0.00537563625364281	-0.00944287893406643	-0.0161562998328243
0.170595703125	3.465439453125	-33.54029296875	-54.9706640625	0	9.23456434307156E-06	1.33456328546051E-06	0
0.170595703125	3.465439453125	-33.54064453125	-54.9706640625	0	-1.22718463030851E-07	0	0
0.170595703125	3.465439453125	-33.54064453125	-54.970751953125	0	-4.60194236365692E-08	0	-1.99724298582711E-05
0.170595703125	3.465439453125	-33.54064453125	-54.9706640625	0	2.45436926061703E-07	0	0
0.170595703125	3.465439453125	-33.54064453125	-54.9706640625	0	0	0	0
0.170595703125	3.465439453125	-33.54064453125	-54.9706640625	0	0	0	0
0.170595703125	3.465439453125	-33.54064453125	-54.9706640625	0	-1.38058270909708E-07	0	0
0.170595703125	3.465439453125	-33.54064453125	-54.9706640625	0	0	0	0
0.170595703125	3.465439453125	-33.54064453125	-54.9706640625	0	0	0	0
0.170595703125	3.465439453125	-33.54064453125	-54.9706640625	0	0	0	0
0.170595703125	3.465439453125	-33.54064453125	-54.9706640625	0	-3.88097139335067E-06	0	0
0.170595703125	3.465439453125	-33.54064453125	-54.9706640625	0	0	0	0
0.170595703125	3.465439453125	-33.54064453125	-54.9706640625	0	3.63553446728897E-06	0	0
0.170595703125	3.465439453125	-33.54064453125	-54.9706640625	0	0	0	0
0.170595703125	3.465439453125	-33.54064453125	-54.9706640625	0	0	0	0
0.170595703125	3.465439453125	-33.54064453125	-54.9706640625	0	3.52815581213698E-06	0	0
0.170595703125	3.465439453125	-33.54064453125	-54.9706640625	0	8.03805932852076E-06	0	0
0.170595703125	3.465439453125	-33.54064453125	-54.9706640625	0	0	0	0
0.170595703125	3.465439453125	-33.54064453125	-54.9706640625	0	0	0	0
0.170595703125	3.465439453125	-33.54064453125	-54.9706640625	0	-1.38058270909708E-07	0	0
0.170595703125	3.465439453125	-33.54064453125	-54.9706640625	0	0	0	0
0.170595703125	3.465439453125	-33.54064453125	-54.9706640625	0	2.62310714728445E-06	0	0
0.170595703125	3.465439453125	-33.54064453125	-54.9706640625	0	-1.53398078788564E-08	0	0
0.170595703125	3.465439453125	-33.54064453125	-54.9706640625	0	0	0	0
0.170595703125	3.465439453125	-33.54064453125	-54.9706640625	0	0	0	0
0.170595703125	3.465439453125	-33.54064453125	-54.9706640625	0	0	0	0
0.170595703125	3.465439453125	-33.54064453125	-54.9706640625	0	0	0	0
0.170595703125	3.465439453125	-33.54064453125	-54.9706640625	0	0	0	0
0.170595703125	3.465439453125	-33.54064453125	-54.9706640625	0	0	0	0
0.170595703125	3.465439453125	-33.54064453125	-54.9706640625	0	9.35728280610241E-07	0	0
0.170595703125	3.465439453125	-33.54064453125	-54.9706640625	0	0	0	0
0.170595703125	3.465439453125	-33.54064453125	-54.9706640625	0	0	0	0
0.170595703125	3.465439453125	-33.54064453125	-54.9706640625	0	0	0	0
0.170595703125	3.465439453125	-33.54064453125	-54.9706640625	0	0	0	0
0.170595703125	3.465439453125	-33.54064453125	-54.9706640625	0	0	0	0
0.170595703125	3.465439453125	-33.54064453125	-54.9706640625	0	0	0	0
0.170595703125	3.465439453125	-33.54064453125	-54.9706640625	0	-2.77650522607301E-06	0	0
0.170595703125	3.465439453125	-33.54064453125	-54.9706640625	0	0	0	0
0.170595703125	3.465439453125	-33.54064453125	-54.9706640625	0	0	0	0
8.7890625E-05	0.00017578125	0.00017578125	8.7890625E-05	0	0	0	0
8.7890625E-05	0.00017578125	0.00017578125	8.7890625E-05	0	1.53398078788564E-07	0	0
8.7890625E-05	0.00017578125	0.00017578125	8.7890625E-05	0	-4.75534044244549E-07	0	0
8.7890625E-05	0.00017578125	0.00017578125	8.7890625E-05	0	3.06796157577128E-08	0	0
8.7890625E-05	0.00017578125	0.00017578125	8.7890625E-05	0	0	0	0
8.7890625E-05	0.00017578125	0.00017578125	8.7890625E-05	0	-4.60194236365692E-08	0	0
28.713603515625	-14.96126953125	-0.753310546875	0	-0.0882159217128014	0.0485942564084589	0.00250407023814452	0
63.465732421875	-37.746826171875	-2.66501953125	0.002021484375	-0.0194318857082359	0.0217700866037864	0.00359683213201061	0
49.07478515625	-35.597548828125	-5.40369140625	0.04552734375	0.0665344224995154	-0.0299172273061337	0.00676467119688113	-0.00182680238048513
3.13681640625	-11.201044921875	-6.518759765625	-6.426123046875	0.0480448458494698	-0.0339064517236854	-0.0265835802579006	0.0694113727875792
2.166328125	-10.484296875	-5.82732421875	-7.9976953125	0	-2.71514599455759E-06	0	0
2.166328125	-10.484296875	-5.82732421875	-7.9976953125	0	-9.75611781095268E-06	0	0
-0.220078125	-3.9786328125	13.790478515625	-46.018212890625	-0.00205513542076191	-0.00869653592152855	-0.0428435158327544	0.0685275697566389
0.006328125	-0.0671484375	32.896669921875	-66.198251953125	-3.86102964310816E-05	-0.0052813271148036	-0.0191083538202629	-0.000643949794946513
-0.41572265625	4.102119140625	32.620341796875	-47.10673828125	0.00386793255665364	-0.0116030766989906	0.0235332441213821	-0.065783339486343
7.9976953125	5.544931640625	12.574599609375	-6.452314453125	0	-1.30388366970279E-06	-7.66990393942821E-08	0
7.9976953125	5.54484375	12.575302734375	-6.45240234375	0	-2.40834983698046E-06	0	-7.66990393942821E-08
7.9976953125	5.54484375	12.575302734375	-6.45240234375	0	6.74951546669682E-07	0	0
15.361083984375	2.39537109375	9.31236328125	-1.823203125	-0.0991320511353611	0.0458581255567231	0.0302661158965304	-0.033209809688675
59.040791015625	-23.299716796875	2.07474609375	-0.02513671875	-0.0396533420076123	0.0348961607882214	0.00659541175674583	0.000328317908031164
63.06609375	-35.836787109375	-1.30306640625	-0.039638671875	0.0252696490140371	0.00478802957303533	0.00604558702294398	0.000106197489945323
26.829931640625	-23.720537109375	-7.205009765625	0.65759765625	0.0985419287262615	-0.0484379130865576	0.0091796171512495	0.00919385249296108
6.45240234375	-12.575390625	-5.54466796875	-7.9976953125	0	4.37184524547408E-06	0	0
6.45240234375	-12.575302734375	-5.54484375	-7.9976953125	0	8.59029241215959E-07	0	0
1.799296875	-9.233876953125	-2.218359375	-15.93158203125	0.0329357640209193	-0.0294790150144584	-0.0463720244604726	0.0992346130908391
0.025576171875	-2.0682421875	23.414677734375	-59.255947265625	-0.000370364321427109	-0.00673274905668523	-0.0348577959287163	0.0396545691922426
0.040078125	1.341650390625	35.86921875	-62.78888671875	-5.33211721869049E-05	-0.00581492233186962	-0.00224574787346458	-0.028538362655519
-0.64142578125	7.240693359375	23.414853515625	-26.067041015625	-0.00891130857164042	-0.00956760691192941	0.0481928136362693	-0.0981785900368429
7.9976953125	5.54484375	12.575302734375	-6.45240234375	0	1.99417502425133E-07	0	0
7.9976953125	5.54484375	12.575302734375	-6.45240234375	0	1.53398078788564E-08	0	0
27.53630859375	-3.4955859375	6.337177734375	0.775546875	-0.0991968464838414	0.0499245245477134	0.0179092870577964	-0.00595127788410477
63.0776953125	-27.277119140625	1.316953125	-0.039462890625	-0.0260529763033709	0.0302578784196994	0.00598778662685645	-0.000149240990853394
58.8041015625	-35.74599609375	-2.11447265625	-0.020126953125	0.0397499060982097	-0.00530152964178005	0.00724772174698632	-0.000633104550776162
14.5754296875	-17.295908203125	-7.356005859375	-2.385791015625	0.096847616266426	-0.0536628510675985	-0.00906401635907443	0.0431266733463902
6.45240234375	-12.57521484375	-5.54484375	-7.9976953125	0	-2.12149542964584E-05	0	0
6.45240234375	-12.575302734375	-5.54484375	-7.9976953125	0	2.0401944478879E-06	0	0
-0.663134765625	-4.1649609375	12.134619140625	-43.363388671875	-0.00393008945817877	-0.0088818714803209	-0.0446813628749123	0.0753389813481269
0.0137109375	-0.253740234375	32.2003125	-66.085751953125	7.04557375875875E-05	-0.00525982070415744	-0.0212679993521035	0.00524768691612526
-0.3026953125	3.734736328125	33.359853515625	-49.268759765625	0.00330095791764323	-0.0106108979253862	0.0205760359584962	-0.0638124502904518
7.997607421875	5.54466796875	12.574423828125	-6.452490234375	0	-1.60761186570415E-05	-7.66990393942821E-08	-2.28716535473749E-05
7.9976953125	5.54484375	12.575302734375	-6.45240234375	0	-1.32996134309685E-05	0	0
16.47193359375	1.877783203125	8.969677734375	-1.4122265625	-0.0992370214406761	0.045277176352735	0.0311987762155648	-0.0362319819379279
59.614013671875	-23.80833984375	1.980439453125	-0.030849609375	-0.0359870665653341	0.0338046414187935	0.00658889233839732	0.000290689359304329
62.52099609375	-35.898310546875	-1.41732421875	-0.0411328125	0.0280976346353516	0.00331145034623237	0.00595028079659265	7.38918545524513E-05
25.16783203125	-22.89041015625	-7.3434375	0.468544921875	0.100024383099482	-0.0505723399742453	0.00680656421219829	0.0130682584485396
6.45240234375	-12.575302734375	-5.544755859375	-7.9976953125	0	8.28349625458246E-06	1.53398078788564E-08	0
6.45240234375	-12.575302734375	-5.54484375	-7.9976953125	0	-3.37475773334841E-06	0	0
-0.828544921875	-6.13072265625	4.222880859375	-29.1469921875	0.0063039247274318	-0.0168191022516539	-0.0498689637635761	0.0966466801230209
0.03744140625	-1.215087890625	27.840322265625	-63.603369140625	0.000133042153733322	-0.00595365555432599	-0.0291354646772035	0.023643675398302
0.0094921875	2.234443359375	35.636044921875	-57.98197265625	0.000542246868709695	-0.00725249242723664	0.00594118429052048	-0.0409321604312411
3.033017578125	7.191298828125	16.38580078125	-12.759521484375	-0.0518659919920929	0.0151342391134719	0.052539624315285	-0.0932801138470798
7.9976953125	5.54484375	12.575302734375	-6.45240234375	0	-7.05631162427395E-07	0	0
7.9976953125	5.54484375	12.575302734375	-6.45240234375	0	-2.10001969861544E-05	0	0
7.9976953125	5.54484375	12.575302734375	-6.45240234375	0	1.08912635939881E-06	0	0
24.953466796875	-2.193662109375	6.833056640625	0.510908203125	-0.100070187765808	0.0497461379218901	0.0207146311226816	-0.0141179768414976
62.365341796875	-26.488037109375	1.468037109375	-0.041748046875	-0.0270296465312099	0.0307930843165927	0.0060782914933417	-4.02669956819981E-05
59.93033203125	-35.86482421875	-1.922431640625	-0.03216796875	0.0372161533318196	-0.00305739244814275	0.00663093875179326	-0.000276361978745477
17.465888671875	-18.8764453125	-7.552001953125	-1.262724609375	0.0984888529910006	-0.0539708437301902	-0.0065415997107068	0.0383617301842126
6.45240234375	-12.575302734375	-5.54484375	-7.9976953125	0	1.2824079386724E-05	-2.60469937782982E-05	3.2366994624387E-06
6.45240234375	-12.575390625	-5.54484375	-7.9976953125	0	-2.77650522607301E-06	0	0
6.45240234375	-12.575302734375	-5.54484375	-7.9976953125	0	-9.84815665822582E-06	0	0
6.45240234375	-12.57521484375	-5.54484375	-7.9976953125	0	-1.02776712788338E-06	0	0
6.45240234375	-12.575302734375	-5.54484375	-7.9976953125	0	-5.32291333396318E-06	0	0
6.45240234375	-12.575302734375	-5.54484375	-7.9976953125	0	5.23087448669004E-06	0	0
6.45240234375	-12.575302734375	-5.54484375	-7.9976953125	0	1.10753412885343E-05	0	0
6.45240234375	-12.575302734375	-5.54484375	-7.9976953125	0	8.42155452549217E-06	0	0
6.45240234375	-12.575302734375	-5.54484375	-7.9976953125	0	2.88388388122501E-06	0	0
5.849384765625	-12.388623046875	-5.777666015625	-7.737978515625	0.0748616678861684	-0.0530644758418601	-0.0241453484751721	0.0313519288574273
-0.028828125	-5.283193359375	16.07466796875	-53.293271484375	-0.00105533276264168	-0.00529221837839758	-0.0287129296691804	0.0506309840597662
-0.001669921875	-2.5976953125	25.640859375	-63.508271484375	4.60194236365692E-08	-0.00351675833488299	-0.00213043853763922	-0.0176807392602093
8.7890625E-05	-0.684580078125	15.13951171875	-32.2196484375	0	-0.00279159959702581	0.0391875794209866	-0.089351159534684
0	0.023291015625	-0.113818359375	0.320185546875	0	1.1965050145508E-06	0	0
0	0.023291015625	-0.113642578125	0.320185546875	0	0	0	0
0	0.023291015625	-0.113642578125	0.320185546875	0	1.38058270909708E-07	0	0
0	0.023291015625	-0.113642578125	0.320185546875	0	0	0	0
0	0.023291015625	-0.113642578125	0.320185546875	0	0	0	0
0	0.023291015625	-0.113642578125	0.320185546875	0	0	0	0
0	0.023291015625	-0.113642578125	0.320185546875	0	0	0	0
0	0.023291015625	-0.113642578125	0.320185546875	0	2.10155367940333E-06	0	0
0	0.023291015625	-0.113642578125	0.320185546875	0	0	0	0
0	0.023291015625	-0.113642578125	0.320185546875	0	0	0	0
0	0.023291015625	-0.113642578125	0.320185546875	0	0	0	0
0	0.023291015625	-0.113642578125	0.320185546875	0	-2.46970906849588E-06	0	0
0	0.023291015625	-0.113642578125	0.320185546875	0	0	0	0
0	0.023291015625	-0.113642578125	0.320185546875	0	0	0	0
0	0.023291015625	-0.113642578125	0.320185546875	0	0	0	0
0	0.023291015625	-0.113642578125	0.320185546875	0	0	0	0
0	0.023291015625	-0.113642578125	0.320185546875	0	-1.31922347758165E-06	0	0
0	0.023291015625	-0.113642578125	0.320185546875	0	0	0	0
0	0.023291015625	-0.113642578125	0.320185546875	0	0	0	0
0	0.023291015625	-0.113642578125	0.320185546875	0	-2.19359252667647E-06	0	0
0	0.023291015625	-0.113642578125	0.320185546875	0	0	0	0
0	0.023291015625	-0.113642578125	0.320185546875	0	0	0	0
0	0.023291015625	-0.113642578125	0.320185546875	0	0	0	0
0	0.023291015625	-0.113642578125	0.320185546875	0	-1.22718463030851E-07	0	0
0	0.023291015625	-0.113642578125	0.320185546875	0	-4.90873852123405E-07	0	0
0	0.023291015625	-0.113642578125	0.320185546875	0	0	0	0
0	0.023291015625	-0.113642578125	0.320185546875	0	0	0	0
0	0.023291015625	-0.113642578125	0.320185546875	0	0	0	-1.97883521637248E-06
0	0.023291015625	-0.113642578125	0.320185546875	0	0	0	0
0	0.023291015625	-0.113642578125	0.320185546875	0	0	0	0
0	0.023291015625	-0.113642578125	0.320185546875	0	0	0	0
8.7890625E-05	0.00017578125	0.00017578125	8.7890625E-05	0	0	0	0
8.7890625E-05	0.00017578125	0.00017578125	8.7890625E-05	0	-2.62310714728445E-06	0	0
8.7890625E-05	0.00017578125	0.00017578125	8.7890625E-05	0	0	0	0
8.7890625E-05	0.00017578125	0.00017578125	8.7890625E-05	0	0	0	0
8.7890625E-05	0.00017578125	0.00017578125	8.7890625E-05	0	6.13592315154257E-08	0	0
8.7890625E-05	0.00017578125	0.00017578125	8.7890625E-05	0	1.22718463030851E-07	0	0
8.7890625E-05	0.00017578125	0.00017578125	8.7890625E-05	0	1.53398078788564E-08	0	0
8.7890625E-05	0.00017578125	0.00017578125	8.7890625E-05	0	-3.08330138365014E-06	0	0
8.7890625E-05	0.00017578125	0.00017578125	8.7890625E-05	0	0	0	0
8.7890625E-05	0.00017578125	0.00017578125	8.7890625E-05	0	2.45436926061703E-07	0	0
8.7890625E-05	0.00017578125	0.00017578125	8.7890625E-05	0	7.82330201821677E-07	0	0
8.7890625E-05	0.00017578125	0.00017578125	8.7890625E-05	0	1.96349540849362E-06	0	0
8.7890625E-05	0.00017578125	0.00017578125	8.7890625E-05	0	-1.53398078788564E-08	0	0
8.7890625E-05	0.00017578125	0.00017578125	8.7890625E-05	0	0	0	0
8.7890625E-05	0.00017578125	0.00017578125	8.7890625E-05	0	0	0	0
8.7890625E-05	0.00017578125	0.00017578125	8.7890625E-05	0	0	0	0
8.7890625E-05	0.00017578125	0.00017578125	8.7890625E-05	0	-1.07378655151995E-07	0	0
8.7890625E-05	0.00017578125	0.00017578125	8.7890625E-05	0	0	0	0
8.7890625E-05	0.00017578125	0.00017578125	8.7890625E-05	0	-2.60776733940559E-07	0	0
8.7890625E-05	0.00017578125	0.00017578125	8.7890625E-05	0	0	0	0
8.7890625E-05	0.00017578125	0.00017578125	8.7890625E-05	0	0	0	0
8.7890625E-05	0.00017578125	0.00017578125	8.7890625E-05	0	-5.27689391032661E-06	0	0
8.7890625E-05	0.00017578125	0.00017578125	8.7890625E-05	0	-7.20970970306251E-07	0	0
8.7890625E-05	0.00017578125	0.00017578125	8.7890625E-05	0	3.37475773334841E-07	0	0
8.7890625E-05	0.00017578125	0.00017578125	8.7890625E-05	0	0	0	0
8.7890625E-05	0.00017578125	0.00017578125	8.7890625E-05	0	0	0	0
8.7890625E-05	0.00017578125	0.00017578125	8.7890625E-05	0	-4.60194236365692E-08	0	0
8.7890625E-05	0.00017578125	0.00017578125	8.7890625E-05	0	0	0	0
0.00017578125	0.00017578125	0.00017578125	8.7890625E-05	0	0	0	0
0.00017578125	0.00017578125	0.00017578125	8.7890625E-05	0	0	0	0
8.7890625E-05	0.00017578125	0.00017578125	8.7890625E-05	0	0	0	0
8.7890625E-05	0.00017578125	0.00017578125	8.7890625E-05	0	0	0	0
8.7890625E-05	0.00017578125	0.00017578125	8.7890625E-05	0	7.05631162427395E-07	0	0
8.7890625E-05	0.00017578125	0.00017578125	8.7890625E-05	0	-9.35728280610241E-07	0	0
8.7890625E-05	0.00017578125	0.00017578125	8.7890625E-05	0	7.66990393942821E-08	0	0
8.7890625E-05	0.00017578125	0.00017578125	8.7890625E-05	0	-2.27029156607075E-06	0	0
8.7890625E-05	0.00017578125	0.00017578125	8.7890625E-05	0	2.60776733940559E-07	0	0
8.7890625E-05	0.00017578125	0.00017578125	8.7890625E-05	0	1.07378655151995E-07	0	0
8.7890625E-05	0.00017578125	0.00017578125	8.7890625E-05	0	3.39009754122727E-06	0	0
8.7890625E-05	0.00017578125	0.00017578125	8.7890625E-05	0	-1.25786424606623E-06	0	0
8.7890625E-05	0.00017578125	0.00017578125	8.7890625E-05	0	0	0	0
8.7890625E-05	0.00017578125	0.00017578125	8.7890625E-05	0	2.42368964485931E-06	0	0
8.7890625E-05	0.00017578125	0.00017578125	8.7890625E-05	0	-2.60776733940559E-07	0	0
8.7890625E-05	0.00017578125	0.00017578125	8.7890625E-05	0	-1.53398078788564E-08	0	0
8.7890625E-05	0.00017578125	0.00017578125	8.7890625E-05	0	0	0	0
8.7890625E-05	0.00017578125	0.00017578125	8.7890625E-05	0	-1.74873809818963E-06	0	0
8.7890625E-05	0.00017578125	0.00017578125	8.7890625E-05	0	-1.07378655151995E-07	0	0
8.7890625E-05	0.00017578125	0.00017578125	8.7890625E-05	0	0	0	0
8.7890625E-05	0.00017578125	0.00017578125	8.7890625E-05	0	0	0	0
8.7890625E-05	0.00017578125	0.00017578125	8.7890625E-05	0	0	0	0
8.7890625E-05	0.00017578125	0.00017578125	8.7890625E-05	0	1.22718463030851E-07	0	0
8.7890625E-05	0.00017578125	0.00017578125	8.7890625E-05	0	-2.62310714728445E-06	0	0
8.7890625E-05	0.00017578125	0.00017578125	8.7890625E-05	0	9.44932165337555E-06	0	0
8.7890625E-05	0.00017578125	0.00017578125	8.7890625E-05	0	-1.85611675334163E-06	0	0
8.7890625E-05	0.00017578125	0.00017578125	8.7890625E-05	0	-1.84077694546277E-07	0	0
-0.25365234375	0.152138671875	0.018720703125	8.7890625E-05	-0.0110614280827882	0.00523616672040824	0.000143595941553975	0
0.4292578125	-0.1894921875	0.005361328125	8.7890625E-05	-0.0205234664368953	0.00970103256085971	0.00041823986181702	0
1.680205078125	-0.810615234375	-0.017314453125	8.7890625E-05	-0.0308995119036562	0.0165663022178104	0.000828349625458246	0
3.417275390625	-1.67484375	-0.05396484375	0	-0.050639743090065	0.0253885785445219	0.00152838175800986	0
5.86318359375	-2.9344921875	-0.109423828125	0	-0.065059806768121	0.0336605699431952	0.00159741089346471	0
8.7075	-4.385302734375	-0.177099609375	0	-0.0755159720514332	0.0388356842282456	0.00231841254338672	0
12.13927734375	-6.155771484375	-0.265693359375	-8.7890625E-05	-0.0825420795939936	0.0428093387408004	0.0017947575218262	0
15.626689453125	-7.954453125	-0.3589453125	-8.7890625E-05	-0.0875734598792191	0.0458294094363738	0.00233277060356133	0
19.2990234375	-9.8834765625	-0.462216796875	-8.7890625E-05	-0.0899428926236109	0.0476537267679826	0.00277629046876271	0
23.189326171875	-11.9225390625	-0.57498046875	-8.7890625E-05	-0.0902819944165809	0.048602478545482	0.00274677667840379	0
26.501396484375	-13.760595703125	-0.681591796875	-8.7890625E-05	-0.0890962119277375	0.0486876604986333	0.00323452120971991	0
30.645	-16.015166015625	-0.8180859375	-8.7890625E-05	-0.086871847746456	0.0483873530797889	0.00289689203830628	0
34.324453125	-18.105205078125	-0.945087890625	-8.7890625E-05	-0.0839079514273349	0.0477101619211689	0.00258667510357216	0
38.02798828125	-20.237958984375	-1.080966796875	-8.7890625E-05	-0.0809192813184894	0.0468922433650683	0.00285818970302792	0
41.428388671875	-22.236591796875	-1.213681640625	-8.7890625E-05	-0.0767735141615339	0.0454819781277256	0.003432803566362	0
44.55123046875	-24.133798828125	-1.34314453125	-8.7890625E-05	-0.0716404616296873	0.0436104908868894	0.00326698024319157	0
47.391943359375	-25.896884765625	-1.471728515625	8.7890625E-05	-0.0670696437362166	0.0423232355689273	0.00323355480182354	1.5493205957645E-06
50.007216796875	-27.57322265625	-1.59732421875	0.0003515625	-0.0644639779504904	0.0415092900230673	0.00311595983462422	0
52.37490234375	-29.1258984375	-1.7237109375	0.00052734375	-0.059705845663011	0.0398937781563055	0.0030392914748457	-1.53398078788564E-08
54.658388671875	-30.681650390625	-1.855986328125	0.000791015625	-0.0544989933154592	0.038054366453744	0.00306728662422461	-6.13592315154257E-08
56.660888671875	-32.12068359375	-1.987998046875	0.001142578125	-0.0490322846224397	0.0357197397334293	0.00342212706007832	-6.13592315154257E-08
58.653720703125	-33.608056640625	-2.13521484375	0.001494140625	-0.0445551009162615	0.0334822139969878	0.00303387652266446	1.59534001940107E-06
60.5035546875	-35.066513671875	-2.294296875	0.0017578125	-0.0335855429428598	0.0285564789686239	0.0031296889626758	-4.3902530149287E-05
61.88361328125	-36.22904296875	-2.440458984375	0.00193359375	-0.0274315801772516	0.0257402743197605	0.00349031250609984	-1.53398078788564E-08
63.091845703125	-37.366611328125	-2.603232421875	0.00193359375	-0.0218455891381661	0.0227425690640743	0.003676430395094	0
63.993251953125	-38.35775390625	-2.7727734375	0.00123046875	-0.0162863047045976	0.019980544616639	0.00410557686031289	1.63982546224975E-05
64.54564453125	-39.120205078125	-2.929482421875	-0.000263671875	-0.00964001080511762	0.0165870262982547	0.00390668091135564	5.04833077293165E-05
64.834013671875	-39.79248046875	-3.11361328125	-0.00298828125	-0.00279937687962039	0.0130926794226827	0.00408838093568069	6.68202031202985E-05
64.781630859375	-40.281767578125	-3.298447265625	-0.007119140625	0.00259043335650248	0.00933580707507201	0.00420729512635759	0.000127581182128449
64.4291015625	-40.5558984375	-3.4737890625	-0.01212890625	0.00945507408133012	0.00527999255151813	0.00430229455655134	0.000185903131683861
63.81650390625	-40.656533203125	-3.6488671875	-0.018544921875	0.0161551033278098	0.00155188234368027	0.00455415886211429	0.000182451674911118
62.906044921875	-40.603271484375	-3.82974609375	-0.0253125	0.0234807206192049	-0.00227842166424654	0.00441766525160822	0.000169888372258335
61.922197265625	-40.420634765625	-3.991640625	-0.03146484375	0.0302504386128782	-0.00622705695015085	0.00468859693836458	0.000166206818367409
60.51427734375	-40.058349609375	-4.190712890625	-0.03849609375	0.0364644413865241	-0.0100672397943516	0.00458841265310777	0.000164335361806189
58.629111328125	-39.463857421875	-4.416328125	-0.0432421875	0.0418151657921717	-0.0136328093979051	0.00518125020820194	6.45499115542278E-05
56.779453125	-38.800810546875	-4.623486328125	-0.042099609375	0.0473587729420879	-0.0173904947553335	0.00526428458825019	-0.000204801774990612
54.51662109375	-37.91654296875	-4.85630859375	-0.031376953125	0.0534123826845526	-0.021661618822275	0.00558839938892254	-0.00046237248908449
52.06693359375	-36.91142578125	-5.1015234375	-0.005712890625	0.058375148009136	-0.0244403790001062	0.00595092506852356	-0.000941588087219964
49.794697265625	-35.93302734375	-5.3296875	0.031728515625	0.0635575487029288	-0.027593998063073	0.00630039657161966	-0.00125162094425953
45.9094921875	-34.15587890625	-5.722119140625	0.1276171875	0.0711791322475386	-0.0326094709675281	0.00704195356409934	-0.00129909764964459
43.00154296875	-32.7955078125	-6.013740234375	0.224208984375	0.075495355349644	-0.035501224170195	0.00785658940131389	-0.00272984153050553
39.9223828125	-31.321494140625	-6.340166015625	0.348486328125	0.0794063774266293	-0.0386441974064939	0.00843422520680011	-0.00284228232225755
36.38478515625	-29.60982421875	-6.71501953125	0.510908203125	0.0830273697560491	-0.041016621413422	0.00891689226170832	-0.00416167453772587
32.879619140625	-27.87626953125	-7.09611328125	0.677900390625	0.0862412129047483	-0.0432674621031024	0.00932336649088226	-0.00452370934347476
29.413388671875	-26.087255859375	-7.473955078125	0.833466796875	0.0884894918465129	-0.0451688006100709	0.00941716941606147	-0.00370640437968929
25.220390625	-23.92048828125	-7.89978515625	0.96169921875	0.0897995114393673	-0.0466092085698955	0.00906740645661566	-0.00237158031749484
21.5898046875	-22.016162109375	-8.23447265625	0.9685546875	0.0897541976468931	-0.0475656302513343	0.00789397251311466	9.38642844107224E-05
17.96203125	-20.068154296875	-8.490849609375	0.80419921875	0.087984888866338	-0.0478524539790532	0.00558134307729827	0.00521699196055967
14.54888671875	-18.182197265625	-8.61662109375	0.3898828125	0.0843034423540675	-0.0470350109569968	0.00223295447369361	0.0125031859457062
11.26353515625	-16.333857421875	-8.573642578125	-0.37564453125	0.0781154865741999	-0.0451301289544083	-0.00341103637898191	0.0229933442432779
8.1580078125	-14.522080078125	-8.279384765625	-1.630546875	0.0693091789874903	-0.0422650976970664	-0.0100872735834414	0.0357401263381003
5.498876953125	-12.817177734375	-7.63119140625	-3.5915625	0.0583751326693281	-0.0378239932190193	-0.0178667651103562	0.0486562445720974
3.3676171875	-11.36021484375	-6.64541015625	-6.116396484375	0.0460089158681722	-0.0335036130289788	-0.0266404602655154	0.0654584576952767
2.126513671875	-10.4769140625	-5.8246875	-8.060712890625	-0.000432551902567993	0.000238395954245308	-6.63600088839329E-05	-0.017619364688886
2.165625	-10.483857421875	-5.824423828125	-7.9969921875	-3.3762917141363E-05	2.67219453249679E-05	3.39316550280304E-05	3.47139852298521E-05
2.166328125	-10.484296875	-5.825390625	-7.997783203125	0	2.89922368910386E-05	2.51572849213245E-06	6.81087469821225E-06
2.166328125	-10.484296875	-5.82591796875	-7.997783203125	0	6.61145719578711E-06	4.22765105141283E-05	1.96349540849362E-06
2.166328125	-10.484296875	-5.826357421875	-7.997783203125	0	-2.25495175819189E-06	-7.51650586063964E-07	1.4419419406125E-05
2.166328125	-10.484296875	-5.826708984375	-7.9976953125	0	2.92990330486158E-06	-1.67203905879535E-06	9.44932165337555E-06
2.166328125	-10.484296875	-5.82697265625	-7.9976953125	0	-7.14835047154709E-06	-1.87145656122048E-06	0
2.166328125	-10.484296875	-5.827060546875	-7.9976953125	0	5.82912699396544E-06	0	-2.45436926061703E-06
2.166328125	-10.484296875	-5.8271484375	-7.9976953125	0	-1.11980597515652E-06	3.19681596195368E-05	0
2.166328125	-10.484296875	-5.827236328125	-7.9976953125	0	-2.40834983698046E-06	0	0
2.166328125	-10.484296875	-5.827236328125	-7.9976953125	0	2.1475731030399E-07	0	0
2.166328125	-10.484296875	-5.82732421875	-7.9976953125	0	-1.07378655151995E-07	0	0
2.166328125	-10.484296875	-5.82732421875	-7.9976953125	0	-2.46970906849588E-06	0	0
2.166328125	-10.484296875	-5.82732421875	-7.9976953125	0	-6.18194257517913E-06	0	0
2.166328125	-10.484296875	-5.82732421875	-7.9976953125	0	-4.77068025032434E-06	0	0
2.166328125	-10.484296875	-5.82732421875	-7.9976953125	0	-3.63553446728897E-06	0	0
1.26	-9.688095703125	-4.72763671875	-10.1766796875	0.028260420676562	-0.0265346309309592	-0.0400574232267572	0.122875251207181
0.285205078125	-8.661884765625	-2.946884765625	-14.43568359375	0.0181874131144479	-0.022206734235058	-0.0452422936296185	0.0966811793509404
-0.302607421875	-7.82912109375	-1.0592578125	-18.49306640625	0.0102204384556378	-0.0187566580450244	-0.0486351369964561	0.100626010364491
-0.629208984375	-7.08767578125	1.014609375	-22.663564453125	0.00460378314060239	-0.0161880072157099	-0.0501040309795117	0.100991174491047
-0.749443359375	-6.474287109375	3.038818359375	-26.6748046875	0.000538074440966646	-0.0140409249865221	-0.0503501275173122	0.0987971677895578
-0.75041015625	-5.949052734375	4.995703125	-30.5391796875	-0.00124566909880253	-0.012297693879361	-0.0494682726419725	0.0944614477916384
-0.67130859375	-5.483232421875	6.89783203125	-34.09259765625	-0.003343786661241	-0.0108277261097538	-0.0479920615705587	0.0886414019639372
-0.5452734375	-5.025234375	8.9033203125	-37.69330078125	-0.00353446047317518	-0.0099530042450778	-0.0464016916489103	0.0828953707092516
-0.41994140625	-4.629814453125	10.711669921875	-40.906845703125	-0.00321925810088044	-0.00942959466044334	-0.0448221976510481	0.0759189181247949
-0.291708984375	-4.22349609375	12.6341015625	-44.113271484375	-0.00269908521570842	-0.0089536924608097	-0.0432031576284742	0.0711021417517946
-0.18404296875	-3.840205078125	14.503447265625	-47.13486328125	-0.00208230222051536	-0.00850934424598286	-0.0418664774495264	0.0656909785031044
-0.101513671875	-3.486181640625	16.21248046875	-49.75962890625	-0.00177122625654003	-0.00818720828052688	-0.0406776423389151	0.0607416968696465
-0.045703125	-3.16529296875	17.808134765625	-52.037314453125	-0.00101770421391485	-0.00779253036361179	-0.0389533558944843	0.0554653245127878
-0.007734375	-2.87296875	19.310888671875	-54.160048828125	-0.000406228792247876	-0.00747777284574553	-0.0377989126331374	0.0503672774225208
0.016787109375	-2.555068359375	20.9302734375	-56.25720703125	-0.000367342379274975	-0.00690578208955873	-0.0364835241075254	0.0460227063554553
0.028564453125	-2.262744140625	22.431708984375	-58.09587890625	-8.18838944573355E-05	-0.00690558267205631	-0.0350972196500895	0.0416561073242758
0.03216796875	-1.99353515625	23.82099609375	-59.7132421875	2.88388388122501E-06	-0.00624383869997032	-0.0337835645227679	0.0366495621880062
0.0312890625	-1.738125	25.139794921875	-61.120458984375	9.73004013755862E-05	-0.00652635194167522	-0.0325476362019684	0.0315816424804132
0.026982421875	-1.4839453125	26.430556640625	-62.364990234375	0.000113959432732024	-0.00641263794586926	-0.0320212967140291	0.0287719572498982
0.0214453125	-1.24892578125	27.63158203125	-63.440859375	0.000140758077096386	-0.00624463636998002	-0.030472559030964	0.0247616712761288
0.015556640625	-1.006962890625	28.807119140625	-64.35826171875	0.000149363709316425	-0.00591900292832766	-0.0289238673673226	0.0213120092609079
0.01107421875	-0.77783203125	29.901005859375	-65.0738671875	9.4968750578E-05	-0.00571814348396191	-0.0269164540888718	0.0174484792291155
0.00791015625	-0.556171875	30.915439453125	-65.62775390625	4.84891327050651E-05	-0.00523168749650762	-0.0249131672187404	0.0124763719615339
0.006240234375	-0.317197265625	31.921875	-66.0174609375	3.05262176789243E-06	-0.00584463553973096	-0.02298371084393	0.00806576302154998
0.006240234375	-0.097646484375	32.7825	-66.183662109375	-3.15846644225654E-05	-0.0052179123490324	-0.0205252151749935	0.00333214374706095
0.008701171875	0.12251953125	33.54328125	-66.16001953125	-7.05784560506184E-05	-0.00559787939019168	-0.017941623372805	-0.00233697371092014
0.012744140625	0.3322265625	34.189013671875	-65.951455078125	-0.00015250836993159	-0.00568844561590844	-0.0154442719705114	-0.0073030217543896
0.019072265625	0.55845703125	34.759599609375	-65.546015625	-0.000151112447414615	-0.00574810212874932	-0.0128096139478942	-0.0118718454728361
0.025576171875	0.782578125	35.218037109375	-64.957939453125	-0.000160853225417688	-0.00518474768439832	-0.00999518871674466	-0.0166948037884116
0.03251953125	1.01478515625	35.573115234375	-64.16033203125	-0.00016994973148985	-0.00552016792347739	-0.00712386813817243	-0.021371895870867
0.0390234375	1.25912109375	35.81279296875	-63.156005859375	-0.000130618464088462	-0.00602227051496812	-0.00430875261566834	-0.0259652939615354
0.042275390625	1.502841796875	35.925908203125	-62.028896484375	-3.06796157577128E-08	-0.00596135613788118	-0.00146492097281503	-0.0305392411758134
0.039814453125	1.74779296875	35.9265234375	-60.738662109375	0.000203712648631213	-0.00660131758277919	0.00109313004925519	-0.0350233891547686
0.0291796875	2.01181640625	35.81138671875	-59.2442578125	0.000510462786784705	-0.00716528561944535	0.00502245251704001	-0.0392695706940991
0.004130859375	2.29693359375	35.574609375	-57.6017578125	0.000719789805099579	-0.00799562941992784	0.00852867240391023	-0.0440747194927272
-0.036298828125	2.60859375	35.216982421875	-55.782685546875	0.00141765902474027	-0.00836464383826161	0.0118461206150232	-0.0490711710354126
-0.10072265625	2.957080078125	34.7185546875	-53.74265625	0.00226417098272709	-0.00924445851915342	0.015111551537619	-0.0538339512846793
-0.19001953125	3.326572265625	34.103056640625	-51.56525390625	0.00260279724165284	-0.0100387691109285	0.0184171574170496	-0.0591818378258693
-0.31130859375	3.763388671875	33.31705078125	-49.152568359375	0.00326248567948306	-0.0111390168310395	0.0219714369220042	-0.0642444192803204
-0.44859375	4.202841796875	32.42970703125	-46.610771484375	0.00382864730867589	-0.0116445401996872	0.0249283843081562	-0.0701052689969793
-0.60626953125	4.6894921875	31.3773046875	-43.7980078125	0.00432436854008902	-0.0124935678861661	0.0281473356128791	-0.0751521118085467
-0.76640625	5.21455078125	30.15193359375	-40.749345703125	0.00465076897213532	-0.013249406239781	0.0315069836354668	-0.0792882302263464
-0.8982421875	5.81818359375	28.6161328125	-37.159453125	0.000723195242448686	-0.0134674769485868	0.0385123364179672	-0.0876331624114836
-0.9031640625	6.344560546875	27.03234375	-33.6371484375	0	-0.0131139557362107	0.0414251971962754	-0.0929580085612396
-0.9028125	6.829189453125	25.328671875	-29.98705078125	-0.000153766234177657	-0.01206635423674	0.044333317973949	-0.0949906251440353
-0.6423046875	7.240693359375	23.414765625	-26.067041015625	-0.00883480894974856	-0.0095771175928143	0.0481056988673252	-0.0983808914231492
-0.002724609375	7.51974609375	21.205283203125	-21.766640625	-0.0163533550048361	-0.00498416435657439	0.051920555688718	-0.10143243940449
1.080087890625	7.5554296875	18.944560546875	-17.451474609375	-0.0291333938031399	0.00263856967362633	0.0536989763151532	-0.0987699396305728
2.6384765625	7.282001953125	16.78078125	-13.44955078125	-0.0407800662361222	0.00873118854752689	0.0534250073464369	-0.0929380821508049
4.738095703125	6.69181640625	14.80587890625	-9.99193359375	-0.0583130524668424	0.017167438608967	0.0519367085064145	-0.0901584476039246
7.3761328125	5.742509765625	12.865341796875	-6.895458984375	-0.0749577717825294	0.0275552957277946	0.0476609211378778	-0.0784251205962346
7.948212890625	5.540185546875	12.572578125	-6.477802734375	-0.0101914308789389	-0.000180365461039594	-0.000209894591206392	-0.00160185943774958
7.99751953125	5.544404296875	12.574072265625	-6.452666015625	1.21184482242966E-06	-2.42368964485931E-06	1.77941771394734E-06	-4.45774816959567E-05
7.9976953125	5.54484375	12.57451171875	-6.452314453125	0	-1.91900996564494E-05	4.75534044244549E-07	3.37475773334841E-07
7.9976953125	5.54484375	12.57486328125	-6.452314453125	0	-5.44563179699403E-06	1.28854386182394E-06	0
7.9976953125	5.54484375	12.574951171875	-6.452314453125	0	-1.34223318939994E-05	0	-1.39592251697593E-06
7.9976953125	5.54484375	12.575126953125	-6.45240234375	0	-1.36524290121822E-06	0	3.98835004850267E-07
7.9976953125	5.54484375	12.57521484375	-6.45240234375	0	-9.8174770424681E-06	0	-1.38058270909708E-07
7.9976953125	5.54484375	12.57521484375	-6.45240234375	0	-1.50330117212793E-06	0	-1.38058270909708E-07
7.9976953125	5.544755859375	12.575302734375	-6.45240234375	0	1.28854386182394E-05	0	-1.38058270909708E-07
7.9976953125	5.54484375	12.575302734375	-6.45240234375	0	-3.20601984668099E-06	0	-1.53398078788564E-08
7.9976953125	5.54484375	12.575302734375	-6.45240234375	0	-1.65976721249226E-05	0	0
7.9976953125	5.54484375	12.575302734375	-6.45240234375	0	1.03390305103492E-05	0	0
7.9976953125	5.54484375	12.575302734375	-6.45240234375	0	-5.90582603335972E-06	0	-1.22718463030851E-07
7.9976953125	5.54484375	12.575302734375	-6.45240234375	0	-4.32582582183751E-06	0	0
7.9976953125	5.54484375	12.575302734375	-6.45240234375	0	-4.5405831321415E-06	0	0
7.9976953125	5.54484375	12.575302734375	-6.45240234375	0	-3.78893254607753E-06	0	2.3930100291016E-06
7.9976953125	5.54484375	12.575302734375	-6.45240234375	0	6.90291354548539E-07	0	0
7.9976953125	5.54484375	12.575302734375	-6.45240234375	0	-1.31922347758165E-06	0	0
7.9976953125	5.54484375	12.575302734375	-6.45240234375	0	1.99417502425133E-07	0	-6.13592315154257E-08
7.9976953125	5.54484375	12.575302734375	-6.45240234375	0	-3.02194215213471E-06	0	0
7.9976953125	5.54484375	12.575302734375	-6.45240234375	0	-5.70640853093459E-06	0	0
7.9976953125	5.54484375	12.575302734375	-6.45240234375	0	-1.58000021152221E-06	0	0
7.9976953125	5.544755859375	12.575302734375	-6.45240234375	0	7.05631162427395E-07	0	-3.06796157577128E-08
7.9976953125	5.54484375	12.575302734375	-6.45240234375	0	-6.85689412184882E-06	0	0
7.9976953125	5.54484375	12.575302734375	-6.45240234375	0	-1.36524290121822E-06	0	0
7.9976953125	5.54484375	12.575302734375	-6.45240234375	0	-5.47631141275174E-06	0	0
7.9976953125	5.54484375	12.575302734375	-6.452314453125	0	-5.53767064426716E-06	0	3.68155389092554E-07
7.9976953125	5.54484375	12.575302734375	-6.45240234375	0	-3.68155389092554E-07	0	0
7.9976953125	5.54484375	12.575302734375	-6.45240234375	0	8.86640895397901E-06	0	-8.03805932852076E-06
7.9976953125	5.54484375	12.575302734375	-6.45240234375	0	4.15708793517009E-06	0	-2.10155367940333E-06
7.9976953125	5.54484375	12.575302734375	-6.45240234375	0	-3.75825293031982E-06	0	0
7.9976953125	5.54484375	12.575302734375	-6.45240234375	0	1.02776712788338E-06	0	1.53398078788564E-06
7.9976953125	5.54484375	12.575302734375	-6.45240234375	0	-2.11689348728218E-06	0	0
10.312119140625	4.397607421875	11.1202734375	-4.191767578125	-0.123972523004564	0.0367565266683454	0.0410526546221295	-0.0590243286785692
14.54572265625	2.762841796875	9.620244140625	-2.217041015625	-0.0968589984038721	0.0431147849952841	0.034360080522279	-0.0436020233129403
18.247412109375	1.0423828125	8.42326171875	-0.84673828125	-0.100760724557283	0.0471753855388962	0.0278741643141724	-0.0296555148439125
22.1424609375	-0.822216796875	7.43185546875	0.086572265625	-0.101058669645714	0.0495284507082813	0.0222119037503132	-0.0180748035848092
26.1116015625	-2.793251953125	6.60515625	0.640283203125	-0.0982563475229808	0.0500050278594616	0.0176700780937335	-0.00905169849334771
30.00427734375	-4.772373046875	5.91451171875	0.911953125	-0.0929049328259787	0.0493332056335992	0.0142750257945614	-0.00250808926780878
33.662109375	-6.692958984375	5.36203125	0.98419921875	-0.0874058571383347	0.0481221431413714	0.0118862495524343	0.00117042734115674
37.459951171875	-8.796708984375	4.848837890625	0.91125	-0.0820502393339738	0.0466548291585272	0.0102974289513818	0.00256050539133083
40.808759765625	-10.719404296875	4.43443359375	0.771064453125	-0.0757808445140774	0.0448965036804133	0.00904671305578708	0.00425225610325051
43.8830859375	-12.548408203125	4.063798828125	0.60521484375	-0.0701336016221315	0.0433764974575053	0.00824586770585563	0.00419795318335936
46.6976953125	-14.2857421875	3.7321875	0.444287109375	-0.0642349852984749	0.041813478413305	0.00777352434164988	0.00376915953372169
49.518896484375	-16.130302734375	3.39240234375	0.292060546875	-0.0601588762090973	0.0403488949162633	0.0074590736199412	0.00325332781417938
51.86583984375	-17.732548828125	3.099814453125	0.179560546875	-0.0544094241772546	0.038975936091682	0.00723038776408321	0.00281082037629801
54.016962890625	-19.28126953125	2.816806640625	0.09193359375	-0.0495641771208311	0.0380122280015007	0.00684782829539241	0.00112747587909595
56.020693359375	-20.818740234375	2.535029296875	0.03181640625	-0.04504304486508	0.03662198121344	0.00679308052107277	0.000999940716391134
57.83115234375	-22.269287109375	2.267841796875	-0.007470703125	-0.0412358732874345	0.0352342808334871	0.00667948924372984	0.000606137168525132
59.630009765625	-23.817919921875	1.97841796875	-0.0309375	-0.0363893990463808	0.0337262550005325	0.00651905019312488	0.000305921788528033
61.137861328125	-25.23234375	1.7103515625	-0.040341796875	-0.0319293345657954	0.0323275406385226	0.00617842975917488	7.27873883851737E-05
62.41921875	-26.547099609375	1.45740234375	-0.04166015625	-0.0275529180575734	0.030827614224128	0.00610734508946426	-4.22304910904917E-05
63.535341796875	-27.80736328125	1.206474609375	-0.037001953125	-0.0227354667330264	0.0290719118531614	0.00585489787120192	-0.000140343902283657
64.44158203125	-28.96927734375	0.972861328125	-0.030849609375	-0.0177901427700013	0.0272041675254476	0.00590633224701972	-0.000167464682613475
65.15806640625	-30.060439453125	0.740302734375	-0.024169921875	-0.0132271788581645	0.0252912628033385	0.00560734405165293	-0.000165869342594074
65.700791015625	-31.119169921875	0.503525390625	-0.017841796875	-0.00818127177487776	0.0231439197974167	0.00545534189538134	-0.000102960790482884
66.04857421875	-32.06302734375	0.276943359375	-0.013798828125	-0.00375115059927191	0.0209418903764069	0.00535827159112394	-2.56941781970845E-05
66.1974609375	-32.96232421875	0.03990234375	-0.012216796875	0.000709282036702563	0.01865363589531	0.00556238307476	-4.38718505335293E-06
66.12626953125	-33.753427734375	-0.198720703125	-0.01248046875	0.00489442648048308	0.0164812890025458	0.00543151917374548	7.34776797397222E-05
65.819091796875	-34.445126953125	-0.436201171875	-0.01705078125	0.0095777005055137	0.0140324880921888	0.00549023995830574	0.000112440791752017
65.378935546875	-34.941357421875	-0.6458203125	-0.0221484375	0.0147294676029725	0.0109711226338054	0.00577663417140399	0.000136800406663641
64.70384765625	-35.375888671875	-0.885673828125	-0.028740234375	0.0190971404207035	0.00845991938499719	0.00548105141338631	0.000173830702883201
63.895078125	-35.67322265625	-1.10759765625	-0.035068359375	0.0241656430409958	0.00547190888789051	0.00595468332145388	0.000143611281361854
62.797587890625	-35.870537109375	-1.362041015625	-0.0404296875	0.0284188962317585	0.00164223381208673	0.00609637712683087	5.9180978796628E-05
61.43994140625	-35.9384765625	-1.63634765625	-0.041572265625	0.0327992397307975	-2.04172842867579E-05	0.00639858668185222	-1.41739824800633E-05
59.9572265625	-35.868515625	-1.91091796875	-0.03251953125	0.0373261090746953	-0.0032879190809462	0.00665135603608002	-0.000276576736055781
58.37009765625	-35.67779296875	-2.1926953125	-0.012919921875	0.0417327296646307	-0.00600134701702136	0.00722366892823227	-0.00124703434170375
56.627314453125	-35.368681640625	-2.4957421875	0.023115234375	0.0461856764743603	-0.00959534128457438	0.00784879677891143	-0.00109352888426004
54.689677734375	-34.927822265625	-2.827265625	0.078662109375	0.0507548836880037	-0.0126641925692026	0.00866343261612598	-0.00196604181660151
52.379384765625	-34.30283203125	-3.228134765625	0.168662109375	0.0555419008337191	-0.0160000485497703	0.00952287603215467	-0.00253232616425737
49.889443359375	-33.535986328125	-3.66767578125	0.291533203125	0.060416339544536	-0.0195771843684644	0.0106046392837716	-0.0032265445096229
47.200869140625	-32.60091796875	-4.140703125	0.439453125	0.0656412928653848	-0.0233804596349087	0.0115572106734328	-0.00335207015749558
44.398388671875	-31.548955078125	-4.6388671875	0.602138671875	0.0712328829343461	-0.0272737335541782	0.0125154117725856	-0.0039007597455144
41.32212890625	-30.315234375	-5.174033203125	0.76482421875	0.0768576530077494	-0.0314638634355194	0.0131876941926844	-0.00404831335750112
38.22767578125	-29.0056640625	-5.687314453125	0.899736328125	0.0828759965319006	-0.0358527512075468	0.0135202152080743	-0.00260520559148982
34.829736328125	-27.48779296875	-6.227578125	0.975849609375	0.0888874831619299	-0.0407600324470324	0.0131013464141343	-0.000554273278086719
31.161357421875	-25.8099609375	-6.721875	0.93919921875	0.0943237730159257	-0.0451340099258016	0.0116767844758485	0.0028338300881163
27.1824609375	-23.861162109375	-7.178115234375	0.682646484375	0.0984651836674436	-0.0486791622450684	0.00890491187175494	0.00923336783805701
23.053798828125	-21.79740234375	-7.474833984375	0.138515625	0.101031426146921	-0.0517373983826445	0.00437149242989286	0.0178828105493975
19.040361328125	-19.703935546875	-7.57037109375	-0.779326171875	0.100798751941015	-0.0536740031079265	-0.00141656989838087	0.0291599009911545
15.08501953125	-17.572412109375	-7.409794921875	-2.172568359375	0.0961684616123975	-0.0534412675427885	-0.010392750517541	0.0433078824968632
11.272236328125	-15.43587890625	-6.9120703125	-4.159248046875	0.0860992583226374	-0.0506677382394439	-0.0201940594025048	0.0592901215296861
7.672939453125	-13.291435546875	-5.9431640625	-7.033623046875	0.0744791237572855	-0.0462538619203818	-0.0291896448786316	0.0745295610455912
6.45416015625	-12.588134765625	-5.541767578125	-7.944697265625	-0.0110511657513173	-0.00322329247035258	-1.03083508945915E-05	0.00312445808818911
6.452666015625	-12.5750390625	-5.54255859375	-7.99734375	-2.33165079758617E-06	-2.79184503395187E-06	1.07378655151995E-07	1.7732817907958E-05
6.45240234375	-12.575390625	-5.543173828125	-7.99787109375	0	1.38518465146073E-05	3.14619459595345E-05	-1.22718463030851E-07
6.45240234375	-12.575302734375	-5.54361328125	-7.9976953125	-3.06796157577128E-08	1.96809735085728E-05	4.38871903414082E-05	0
6.45240234375	-12.575302734375	-5.54396484375	-7.9976953125	0	1.77941771394734E-06	4.31048601395865E-06	0
6.45240234375	-12.575390625	-5.544228515625	-7.9976953125	0	-4.81669967396091E-06	1.87145656122048E-06	0
6.45240234375	-12.575302734375	-5.544404296875	-7.9976953125	0	2.40988381776834E-05	0	0
6.45240234375	-12.575302734375	-5.544580078125	-7.9976953125	0	2.991262536377E-06	7.66990393942821E-08	0
6.45240234375	-12.575302734375	-5.54466796875	-7.9976953125	0	1.12594189830806E-05	0	0
6.45240234375	-12.575302734375	-5.54466796875	-7.9976953125	0	4.81669967396091E-06	0	0
6.45240234375	-12.57521484375	-5.544755859375	-7.9976953125	0	-2.31631098970732E-06	0	0
6.45240234375	-12.575302734375	-5.544755859375	-7.9976953125	0	4.09572870365466E-06	0	0
6.45240234375	-12.575302734375	-5.54484375	-7.9976953125	0	-1.42660213273365E-05	0	0
6.45240234375	-12.575302734375	-5.54484375	-7.9976953125	0	5.58369006790373E-06	0	0
6.45240234375	-12.575302734375	-5.54484375	-7.9976953125	0	1.06611664758052E-05	0	0
6.45240234375	-12.575302734375	-5.54484375	-7.9976953125	0	2.56174791576902E-06	0	0
6.45240234375	-12.575302734375	-5.54484375	-7.9976953125	0	4.27980639820094E-06	0	0
6.45240234375	-12.57521484375	-5.54484375	-7.9976953125	0	1.08605839782303E-05	0	0
6.45240234375	-12.575302734375	-5.54484375	-7.9976953125	0	-9.60271973216411E-06	0	0
6.45240234375	-12.575302734375	-5.54484375	-7.9976953125	0	-2.00951483213019E-06	0	0
6.45240234375	-12.575302734375	-5.54484375	-7.9976953125	0	4.74000063456663E-06	0	-9.44932165337555E-06
6.45240234375	-12.575302734375	-5.54484375	-7.9976953125	0	-2.69980618667873E-06	0	0
6.45240234375	-12.575302734375	-5.54484375	-7.9976953125	0	1.18116520667194E-06	0	0
6.45240234375	-12.575390625	-5.54484375	-7.9976953125	0	-1.87145656122048E-06	0	0
6.45240234375	-12.575302734375	-5.54484375	-7.9976953125	0	6.25864161457342E-06	0	0
6.45240234375	-12.575302734375	-5.54484375	-7.9976953125	0	7.05631162427395E-07	0	0
6.45240234375	-12.575302734375	-5.54484375	-7.9976953125	0	-6.44271930911969E-07	0	0
6.403798828125	-12.52265625	-5.48384765625	-8.088837890625	0.0272538531631672	-0.0258519634609264	-0.0329551228584624	0.041680651016882
3.6383203125	-10.642060546875	-3.912802734375	-12.096474609375	0.0497855765679467	-0.0363396213698139	-0.0414324836050178	0.0945184505177162
1.799296875	-9.23396484375	-2.2376953125	-15.9451171875	0.0329297354764229	-0.0294597175361468	-0.0463377246500555	0.0992680385322071
0.477333984375	-8.0258203125	-0.263232421875	-20.083095703125	0.0207454334569024	-0.0240013383588054	-0.049089103270823	0.101482094362594
-0.331083984375	-7.078095703125	1.66376953125	-24.093720703125	0.010489744122759	-0.0194893793081659	-0.0500367045627314	0.0998704788070335
-0.777041015625	-6.285146484375	3.752138671875	-28.249013671875	0.00407195200144243	-0.0156761331666003	-0.0497348324834834	0.0963606694051196
-0.912568359375	-5.607158203125	5.87724609375	-32.24232421875	1.63522351988609E-05	-0.0129349861976881	-0.0487665224509385	0.0915027056479646
-0.912568359375	-5.051689453125	8.01826171875	-36.193359375	0	-0.0109809707904636	-0.0473797424594583	0.0858552786783242
-0.866162109375	-4.640537109375	9.8286328125	-39.390556640625	-0.0039777349014505	-0.00958337623442887	-0.0458227826393702	0.0797578891241733
-0.708486328125	-4.257421875	11.664140625	-42.579052734375	-0.00435386699064006	-0.00854276968735089	-0.0442023466942793	0.0736046626693434
-0.545361328125	-3.92537109375	13.368427734375	-45.366943359375	-0.00418962366768114	-0.00784698668158173	-0.0428413989392672	0.0669038050732383
-0.395859375	-3.611953125	15.0324609375	-47.9851171875	-0.00396576985130499	-0.00795365970557129	-0.0416450780024109	0.0614755225989553
-0.258310546875	-3.299150390625	16.735869140625	-50.533857421875	-0.00306662701248582	-0.00746652876657033	-0.0402802799556212	0.0565969881594347
-0.14291015625	-2.97685546875	18.487880859375	-53.00578125	-0.00225749816629978	-0.00717590076649752	-0.0385813041941905	0.0523903219652001
-0.06029296875	-2.676181640625	20.1392578125	-55.26791015625	-0.00109949606952491	-0.00701546171589256	-0.0371119346770907	0.0485376831970017
-0.00650390625	-2.3776171875	21.73658203125	-57.274365234375	-0.000675611158408473	-0.00688706752394653	-0.0359721562720759	0.0441687678548325
0.024169921875	-2.081865234375	23.315361328125	-59.11998046875	-0.00052609405101326	-0.00638791017556854	-0.034528618991444	0.0394474511062623
0.036298828125	-1.8502734375	24.54451171875	-60.49810546875	-8.88788468500941E-05	-0.00606065071428102	-0.0331038116162321	0.0348684570951921
0.041572265625	-1.58396484375	25.953662109375	-61.91560546875	1.53398078788564E-08	-0.00590625554798033	-0.0316389213230329	0.0306432910926557
0.040078125	-1.34208984375	27.19546875	-63.063193359375	0.000151495942611586	-0.00592521555051859	-0.0299936962484098	0.0258192436507208
0.034189453125	-1.082197265625	28.4741015625	-64.0965234375	0.000152661768010379	-0.00566825842873987	-0.0282980952447125	0.0214881869543966
0.027861328125	-0.851923828125	29.585830078125	-64.879453125	0.000189201190377815	-0.00543928111653218	-0.0263745293561275	0.0161728208059098
0.0207421875	-0.6159375	30.683935546875	-65.512529296875	0.000137812833983646	-0.00536025042634031	-0.0243588019018064	0.0118714312980233
0.015556640625	-0.39041015625	31.636845703125	-65.9267578125	6.49640863669569E-05	-0.0053968972273629	-0.0220867309180217	0.00675077333094289
0.012744140625	-0.168046875	32.5353515625	-66.156767578125	4.01902966426038E-06	-0.00574486542928688	-0.0198045970202685	0.0014632029143326
0.012216796875	0.051328125	33.317314453125	-66.19306640625	0	-0.00566710794314895	-0.0176029510944556	-0.00248958945950688
0.01388671875	0.27017578125	34.0112109375	-66.0403125	-7.67910782415552E-05	-0.00567605105114233	-0.0153217375851751	-0.00867216096680905
0.01810546875	0.489638671875	34.60482421875	-65.6975390625	-9.34347697901144E-05	-0.00572590542674861	-0.0130448192221007	-0.0133541771275936
0.0242578125	0.73248046875	35.137705078125	-65.111484375	-0.000168461770125601	-0.00575120076994085	-0.00962818381324302	-0.0178836695786387
0.0305859375	0.957041015625	35.4997265625	-64.3897265625	-0.000162157109087391	-0.00567957920695447	-0.00742756565455803	-0.0229027473379454
0.036826171875	1.1851171875	35.75759765625	-63.489111328125	-0.000128194774443603	-0.00602085925264326	-0.005847289326494	-0.0257177248021785
0.04095703125	1.420400390625	35.904990234375	-62.412099609375	-8.05646709797539E-05	-0.00587032971792804	-0.00259764306620555	-0.0298819610878202
0.04078125	1.668779296875	35.93794921875	-61.13900390625	7.08392327845589E-05	-0.00648514921771261	-0.000156420020940699	-0.0329371752832441
0.03234375	1.936318359375	35.85673828125	-59.694609375	0.000262187996265414	-0.0068356484879366	0.00302961205607414	-0.036867755615275
0.012392578125	2.205703125	35.66056640625	-58.148173828125	0.000863999338968709	-0.00706184929491822	0.00629769676543298	-0.041716484808087
-0.023642578125	2.508662109375	35.34029296875	-56.382802734375	0.00100214964872569	-0.00806711292464331	0.00957941856399613	-0.0460978714140617
-0.08279296875	2.860400390625	34.86005859375	-54.311044921875	0.00164476488038674	-0.00854418094967575	0.0127302611217369	-0.0505896892969563
-0.17244140625	3.261357421875	34.218193359375	-51.99802734375	0.00256908034393511	-0.00953115952840925	0.0160179040861413	-0.0546670102311564
-0.298828125	3.718388671875	33.39052734375	-49.3801171875	0.00317813207595723	-0.0104741281983383	0.0192561682089836	-0.0604942197491369
-0.436904296875	4.161357421875	32.519267578125	-46.815205078125	0.00347845483460948	-0.0116324984505023	0.0230277514323502	-0.0647603430387099
-0.595986328125	4.655390625	31.4746875	-44.092001953125	0.00383357138700501	-0.0125363199307245	0.0272705275343315	-0.0703596490310344
-0.767373046875	5.216396484375	30.14736328125	-40.738623046875	0.00468508412236033	-0.0131096912696204	0.031311447104435	-0.0783043809684202
-0.8982421875	5.75701171875	28.75412109375	-37.467685546875	0.00225130088391672	-0.0135668175444103	0.0354305383354892	-0.0832259895884646
-0.91072265625	6.3087890625	27.141064453125	-33.92666015625	0	-0.0133572450891694	0.0400057894334369	-0.0888424454859975
-0.907119140625	6.877177734375	25.150693359375	-29.67732421875	-0.00448486894992549	-0.0105690509294927	0.0470939158192516	-0.0977453785225361
-0.60521484375	7.278310546875	23.262978515625	-25.77251953125	-0.00920451365943688	-0.008423855496674	0.0491131867691928	-0.100036961741943
-0.028212890625	7.515615234375	21.256611328125	-21.780703125	-0.0165237956101781	-0.00587376583489291	0.0515812851578614	-0.101387232990671
1.13783203125	7.5540234375	18.85201171875	-17.209072265625	-0.0383589996984102	0.00600171517241045	0.0539447507169883	-0.0987334922470526
2.692001953125	7.27330078125	16.7192578125	-13.325537109375	-0.0467620237359847	0.0110787467258834	0.052843275812247	-0.0913046227088249
5.0684765625	6.59373046875	14.516103515625	-9.561708984375	-0.0612127056705668	0.0211345430235575	0.0495175441048794	-0.0782343087260295
7.77673828125	5.591689453125	12.635947265625	-6.496962890625	-0.0836483405187931	0.0347229590174612	0.0435369978673418	-0.0592357419107556
7.988291015625	5.541064453125	12.57416015625	-6.45802734375	-0.000808776030604826	-0.000187851287284476	8.6209720279173E-06	-0.000232121972822855
7.99751953125	5.544580078125	12.574423828125	-6.452578125	-3.06796157577128E-08	-1.22718463030851E-07	0	-4.2307190129886E-05
7.9976953125	5.544931640625	12.574775390625	-6.452314453125	7.66990393942821E-08	-2.60776733940559E-07	1.15048559091423E-06	0
7.9976953125	5.54484375	12.574951171875	-6.452314453125	0	-4.70932101880892E-06	-7.66990393942821E-08	0
7.9976953125	5.54484375	12.5750390625	-6.452314453125	0	2.3930100291016E-06	0	0
7.9976953125	5.54484375	12.575126953125	-6.452314453125	0	1.22718463030851E-07	0	0
7.9976953125	5.54484375	12.57521484375	-6.45240234375	0	1.50330117212793E-06	0	0
7.9976953125	5.54484375	12.57521484375	-6.45240234375	0	5.76776776245001E-06	0	0
7.9976953125	5.544931640625	12.57521484375	-6.45240234375	0	6.13592315154256E-07	0	0
7.9976953125	5.54484375	12.575302734375	-6.45240234375	0	3.52815581213698E-06	0	0
7.9976953125	5.54484375	12.575302734375	-6.45240234375	0	1.07378655151995E-07	0	0
7.9976953125	5.54484375	12.575302734375	-6.45240234375	0	-1.61067982727992E-06	0	0
7.9976953125	5.54484375	12.575302734375	-6.45240234375	0	-1.82543713758391E-06	0	6.28932123033113E-07
7.9976953125	5.54484375	12.575302734375	-6.45240234375	0	-2.71514599455759E-06	0	0
7.9976953125	5.54484375	12.575302734375	-6.45240234375	0	-3.85029177759296E-06	0	-1.22718463030851E-07
7.9976953125	5.54484375	12.575302734375	-6.45240234375	0	-4.80135986608206E-06	0	0
7.9976953125	5.54484375	12.575302734375	-6.45240234375	0	-6.13592315154257E-06	0	0
7.9976953125	5.54484375	12.575302734375	-6.45240234375	0	1.50330117212793E-06	0	0
7.9976953125	5.544931640625	12.575302734375	-6.45240234375	0	-1.24252443818737E-06	0	6.28932123033113E-07
7.9976953125	5.54484375	12.575302734375	-6.45240234375	0	3.52815581213698E-07	0	0
7.9976953125	5.54484375	12.575302734375	-6.45240234375	0	6.3353406539677E-06	0	0
7.9976953125	5.54484375	12.575302734375	-6.45240234375	0	-1.5493205957645E-06	0	1.97883521637248E-06
7.9976953125	5.54484375	12.575302734375	-6.45240234375	0	-1.7947575218262E-06	0	0
7.9976953125	5.54484375	12.575302734375	-6.45240234375	0	-1.07378655151995E-07	0	0
7.9976953125	5.54484375	12.575302734375	-6.45240234375	0	6.99495239275852E-06	0	0
7.9976953125	5.54484375	12.575302734375	-6.45240234375	0	-3.98835004850267E-06	0	0
7.9976953125	5.54484375	12.575302734375	-6.45240234375	0	-4.60194236365692E-07	0	0
7.9976953125	5.54484375	12.575302734375	-6.45240234375	0	3.40543734910612E-06	0	4.90873852123405E-07
7.9976953125	5.544931640625	12.575302734375	-6.45240234375	0	-2.19359252667647E-06	0	0
9.14923828125	4.8097265625	11.52966796875	-5.0312109375	-0.10134587686863	0.0387464832454301	0.0377175809717637	-0.101694612060948
14.559609375	2.750185546875	9.580517578125	-2.141806640625	-0.0967230877060655	0.0430463080929129	0.034501513550922	-0.0439009348092677
18.478388671875	0.9675	8.387490234375	-0.79171875	-0.100687522994085	0.0471929342791096	0.0281721554220271	-0.0296009358074795
22.89533203125	-1.183359375	7.263896484375	0.21568359375	-0.100981126916886	0.0493175897091785	0.0230547494942169	-0.0190325291499178
26.92880859375	-3.187177734375	6.452666015625	0.71876953125	-0.0985834996056132	0.0499213031880588	0.0186159459873517	-0.00974919955759931
30.8098828125	-5.19046875	5.79111328125	0.94095703125	-0.0943521056410779	0.0496137553798956	0.0150749814356358	-0.00338330200633693
34.715478515625	-7.25923828125	5.2238671875	0.97365234375	-0.0889415559847028	0.048478379499742	0.0125030018680116	0.000423792872269166
38.061123046875	-9.123837890625	4.778701171875	0.889892578125	-0.0830776689860839	0.047124380677699	0.0105962484088619	0.00354099523133158
41.2892578125	-11.0025	4.38099609375	0.746103515625	-0.0768857555357835	0.0453866258819507	0.00927009133811899	0.00397669179451474
44.58216796875	-12.953935546875	3.990849609375	0.571201171875	-0.071380666643451	0.0438127922731957	0.00843990093571528	0.00411459666734566
47.28533203125	-14.646357421875	3.666708984375	0.41291015625	-0.0658153076459625	0.0424199377177956	0.00794919582147855	0.00360319815228034
49.96775390625	-16.431767578125	3.337119140625	0.267802734375	-0.0605822088871301	0.0407621033210961	0.00741731866289496	0.00320473130281917
52.491181640625	-18.178505859375	3.024931640625	0.15416015625	-0.0556616280342135	0.0394307153758665	0.00725197087376876	0.00219808709038497
54.38373046875	-19.563046875	2.767587890625	0.07998046875	-0.0509172555544014	0.0382059084157792	0.0069740749142354	0.00180509655233655
56.349052734375	-21.070810546875	2.492490234375	0.0242578125	-0.0463073211508396	0.0369708851436446	0.00678731275331032	0.000764091170253717
58.0953515625	-22.488134765625	2.226708984375	-0.010986328125	-0.0416860046098317	0.035409031924843	0.00674101721313194	0.000907503034113145
59.876982421875	-24.051884765625	1.937548828125	-0.0326953125	-0.0374020564635035	0.0342334964276626	0.00638965891366673	0.000288541786201289
61.298876953125	-25.39916015625	1.67765625	-0.040693359375	-0.0329416545071448	0.0327492166173045	0.00620212976234771	0.000107301956112601
62.79275390625	-26.942958984375	1.377333984375	-0.04095703125	-0.0283382702015472	0.0311957542734127	0.00604468197427913	-0.000100153605641054
63.772998046875	-28.11357421875	1.146357421875	-0.035419921875	-0.0237876701748608	0.0296439639685797	0.00592576778360223	-0.000147001378903081
64.750078125	-29.4324609375	0.87837890625	-0.028037109375	-0.0199417349027055	0.0277708813877241	0.00578108271568886	-0.000156527399595851
65.454697265625	-30.613271484375	0.619541015625	-0.020654296875	-0.010714625706263	0.0243223238386705	0.00549226481294575	-0.000116689918534461
65.8993359375	-31.60107421875	0.391552734375	-0.015556640625	-0.00572049047456738	0.0221146186887455	0.00541660888048723	-6.62679700366597E-05
66.151669921875	-32.53482421875	0.15626953125	-0.012568359375	-0.000966346537136439	0.0197048882690559	0.00558987201047891	-2.02178667843328E-05
66.196669921875	-33.296044921875	-0.052822265625	-0.01212890625	0.00184921383979614	0.0177233992659204	0.00551771355421677	0
66.053232421875	-34.011474609375	-0.280546875	-0.013974609375	0.00781601560947431	0.015072557745991	0.00548447219054329	0.000122380987257516
65.71283203125	-34.610888671875	-0.50115234375	-0.01845703125	0.0111528993571698	0.0129719551346761	0.00538841431360589	0.000178279247168069
65.18654296875	-35.0989453125	-0.72615234375	-0.0242578125	0.0144817757251526	0.010977120498686	0.00558824599084375	0.000164120604495885
64.468037109375	-35.482412109375	-0.95501953125	-0.030849609375	0.0187522401803553	0.00839879025059995	0.00573245552471288	0.000142276718076393
63.49271484375	-35.764716796875	-1.202783203125	-0.0376171875	0.0264466878123897	0.00429352018644464	0.00591779108350523	0.000121813414365999
62.376591796875	-35.91298828125	-1.4501953125	-0.041484375	0.0312603502043906	0.000904941286197376	0.00619969073289497	1.84077694546277E-07
61.0934765625	-35.93830078125	-1.7019140625	-0.040693359375	0.0344313799492999	-0.00142967009430942	0.00654808844943956	-0.000240206051575013
59.63712890625	-35.8425	-1.973408203125	-0.0298828125	0.0383209723146785	-0.00430361378002892	0.00690676383726298	-0.00055680434638673
57.724453125	-35.5763671875	-2.304404296875	-0.001494140625	0.0452412351828749	-0.00871534252598803	0.00767252704657549	-0.00061998901503974
56.059541015625	-35.255390625	-2.598486328125	0.038232421875	0.0490329442341785	-0.0117671052646392	0.00841775025313822	-0.00137167028071946
54.1149609375	-34.785439453125	-2.928076171875	0.099228515625	0.0499930474695082	-0.0126960226705513	0.00879892913911992	-0.00243996518101878
51.9975	-34.19244140625	-3.298271484375	0.187734375	0.0548855257943907	-0.0157596584205007	0.00949017156175695	-0.00257113587819088
49.500087890625	-33.417158203125	-3.728408203125	0.309638671875	0.0596977615842588	-0.0193633474466332	0.0105978437488813	-0.00326552296144308
46.862314453125	-32.479453125	-4.202138671875	0.45896484375	0.0648217789692648	-0.023207963495311	0.0116806654472419	-0.00400275412810091
43.86919921875	-31.351904296875	-4.724296875	0.632197265625	0.073291945345925	-0.0296877284404581	0.0129665708621107	-0.0039988424770918
40.6304296875	-30.03099609375	-5.295849609375	0.804375	0.081609572673038	-0.0347824774720312	0.0135501891926696	-0.00368561894001344
36.973037109375	-28.4480859375	-5.89095703125	0.9390234375	0.0871042458358207	-0.0393111875928744	0.0134421049063552	-0.00140968232464327
33.45416015625	-26.846982421875	-6.43341796875	0.98033203125	0.0928785943758507	-0.0437593023631222	0.0123016055303701	0.000821983605188521
29.84009765625	-25.1898046875	-6.892734375	0.887255859375	0.097380459832906	-0.0475031358740359	0.0103648167273936	0.00728039553776829
25.629873046875	-23.0951953125	-7.3184765625	0.51626953125	0.100925550792941	-0.0513173944429214	0.00627237074262499	0.0138651768076541
21.185595703125	-20.84537109375	-7.549541015625	-0.23677734375	0.10137870405749	-0.0531547199316114	0.00114154248292086	0.0231375844567628
17.223310546875	-18.744609375	-7.53697265625	-1.342265625	0.098650503886428	-0.0540277390776129	-0.00645083406748761	0.0365819903342998
12.931962890625	-16.371298828125	-7.162646484375	-3.198251953125	0.0929447242876165	-0.0525335190717493	-0.014393341732731	0.0506628601805385
9.368173828125	-14.31193359375	-6.483779296875	-5.51056640625	0.0809243434550894	-0.0484560600792783	-0.0248355324510655	0.0669964728526345
6.025693359375	-12.271552734375	-5.44552734375	-8.51607421875	0.0162675441195618	-0.000101488168926514	0.0173023982386852	-0.00452864876161175
6.454951171875	-12.573544921875	-5.54203125	-7.996201171875	0.000168507789549238	0.00011978855972599	2.36386439413177E-05	7.03790385481932E-05
6.452490234375	-12.57521484375	-5.542734375	-7.99822265625	6.13592315154257E-08	-7.05631162427395E-07	2.56021393498114E-05	-3.24436936637813E-05
6.452314453125	-12.575302734375	-5.543349609375	-7.997783203125	0	-1.05077683970166E-05	7.66990393942821E-08	-1.01242732000452E-06
6.45240234375	-12.575302734375	-5.5437890625	-7.9976953125	0	3.52815581213698E-06	1.96349540849362E-05	1.71805848243192E-06
6.45240234375	-12.575390625	-5.544140625	-7.997607421875	0	1.15662151406577E-05	0	0
6.45240234375	-12.575302734375	-5.544404296875	-7.997607421875	0	-3.11244701861997E-05	-1.5493205957645E-06	0
6.45240234375	-12.575302734375	-5.5444921875	-7.997607421875	0	6.2279619988157E-06	3.40543734910612E-06	0
6.45240234375	-12.57521484375	-5.544580078125	-7.9976953125	0	7.82330201821677E-07	1.68124294352266E-05	1.53398078788564E-08
6.45240234375	-12.575302734375	-5.54466796875	-7.9976953125	0	7.19436989518366E-06	0	0
6.45240234375	-12.575302734375	-5.544755859375	-7.9976953125	0	-2.57708772364788E-06	0	0
6.45240234375	-12.575390625	-5.544755859375	-7.9976953125	0	-2.08621387152447E-06	0	0
6.45240234375	-12.575302734375	-5.54484375	-7.9976953125	0	1.73493227109866E-05	0	0
6.45240234375	-12.575302734375	-5.54484375	-7.9976953125	0	3.62019465941011E-06	0	0
6.45240234375	-12.575302734375	-5.54484375	-7.9976953125	0	-1.88372840752357E-05	0	0
6.45240234375	-12.575302734375	-5.54484375	-7.9976953125	0	1.13974772539903E-05	0	0
6.45240234375	-12.575302734375	-5.54484375	-7.9976953125	0	-8.14543798367276E-06	0	0
6.45240234375	-12.575390625	-5.54484375	-7.9976953125	0	-7.30174855033565E-06	0	0
6.45240234375	-12.575302734375	-5.54484375	-7.9976953125	0	-8.14543798367276E-06	0	0
6.45240234375	-12.575302734375	-5.54484375	-7.9976953125	0	-2.65225278225427E-05	0	0
6.45240234375	-12.575302734375	-5.54484375	-7.9976953125	0	6.10524353578485E-06	0	0
6.06744140625	-12.180234375	-5.09783203125	-8.55650390625	0.067865181512622	-0.0638400926242495	-0.0398478661113241	0.0763546607074017
3.337470703125	-10.43912109375	-3.647197265625	-12.68455078125	0.051361634448844	-0.0380516206281336	-0.0399849119549138	0.0933998870669979
1.454501953125	-8.9511328125	-1.763525390625	-16.92650390625	0.0363217044742114	-0.0314766108158667	-0.0452930990733133	0.09915954007108
0.229482421875	-7.749228515625	0.2682421875	-21.273134765625	0.0237523272575079	-0.0259494786196123	-0.0483119886036801	0.101404520954151
-0.468369140625	-6.846943359375	2.272236328125	-25.28296875	0.0133747478099592	-0.0207987392892814	-0.0497603272441781	0.100450461603125
-0.82880859375	-6.130634765625	4.22279296875	-29.161142578125	0.00621909558986173	-0.0167944971998162	-0.0498993979424078	0.0966819003219107
-0.915908203125	-5.489384765625	6.35396484375	-33.18697265625	0	-0.0137557579580542	-0.0491627803680651	0.0923417317797065
-0.915908203125	-4.964853515625	8.393818359375	-36.945615234375	0	-0.0114111143431946	-0.0479187986481292	0.0869019444495143
-0.826171875	-4.537177734375	10.322490234375	-40.272978515625	-0.00409355045093586	-0.0100026285235659	-0.0462302232764405	0.0802210132638439
-0.6697265625	-4.178759765625	12.057978515625	-43.23568359375	-0.0043993955404245	-0.00876349418291976	-0.0445795832496361	0.0744809491944231
-0.5066015625	-3.8443359375	13.766923828125	-46.018212890625	-0.00399378034049178	-0.00815830808248312	-0.0430593622694178	0.0685021977144073
-0.348310546875	-3.509296875	15.585029296875	-48.831328125	-0.00318455945545847	-0.00782508143593072	-0.0414670441921689	0.0633241688658599
-0.21146484375	-3.175224609375	17.3893359375	-51.48650390625	-0.00266458598778887	-0.00747218915567763	-0.0403951751166338	0.0589100317700638
-0.1114453125	-2.867431640625	19.074814453125	-53.848828125	-0.00242951877185328	-0.00717869261153147	-0.0386551040098957	0.0518716217015845
-0.038408203125	-2.5646484375	20.744384765625	-56.02095703125	-0.00137108736802006	-0.00668456672013774	-0.0369909342725422	0.0449961357325865
0.00228515625	-2.2953515625	22.1653125	-57.7726171875	-0.000970089450258879	-0.00661164127348166	-0.0363487485555018	0.0440488105572198
0.028037109375	-2.024033203125	23.654443359375	-59.506787109375	-0.000500906086476177	-0.00621487714269504	-0.0346792405650065	0.0371623873052042
0.038583984375	-1.765810546875	25.01701171875	-60.96498046875	-0.000205047211916674	-0.00620995306436593	-0.0335778423593046	0.0341307657342979
0.041572265625	-1.515498046875	26.32236328125	-62.253017578125	7.66990393942821E-08	-0.00627063734433468	-0.0322517313079853	0.0308512375282615
0.0383203125	-1.26369140625	27.576474609375	-63.398935546875	0.000107547393038662	-0.00624693734116185	-0.0306153879821241	0.0263888107172628
0.03216796875	-1.006875	28.862490234375	-64.396494140625	0.000145467398115195	-0.00608040838682898	-0.0283612952531734	0.0182797434180708
0.0253125	-0.76728515625	29.994609375	-65.13310546875	0.000193511676391774	-0.00584854719074007	-0.026608722203014	0.0138922669083681
0.01828125	-0.519609375	31.087529296875	-65.70931640625	0.000154057690527355	-0.0051582098167679	-0.0241176141025271	0.00820392867111484
0.01423828125	-0.2991796875	32.02048828125	-66.04875	6.33380667317981E-05	-0.00516693816745096	-0.0217800881585234	0.00349180046746409
0.0123046875	-0.07576171875	32.876015625	-66.19658203125	2.7243498792849E-05	-0.00551456889360161	-0.0196780129256522	-0.000658982806667793
0.012568359375	0.151962890625	33.63908203125	-66.150615234375	-4.58506857499018E-05	-0.00530361585565157	-0.0174256842746075	-0.00598875303475282
0.01564453125	0.370458984375	34.295009765625	-65.905224609375	-8.95844780125215E-05	-0.00567197066224655	-0.0150693977455679	-0.0100837454276293
0.02056640625	0.591416015625	34.840458984375	-65.47552734375	-0.000114925840628392	-0.00542673315368728	-0.0128646685183714	-0.0135768957981867
0.027333984375	0.839794921875	35.320693359375	-64.794462890625	-0.000154563904187357	-0.00522064283483484	-0.0098481719980337	-0.0192747140367091
0.033134765625	1.04748046875	35.612490234375	-64.037724609375	-0.000158613613467375	-0.00590396991660638	-0.00760621305711519	-0.0206357691703764
0.038583984375	1.277138671875	35.8266796875	-63.069697265625	-0.000135174387028483	-0.00597832196539519	-0.00452344856674082	-0.0252513946426613
0.041572265625	1.527978515625	35.932412109375	-61.8760546875	-6.13592315154257E-08	-0.00632704181790524	-0.000832782829935236	-0.0302706258000468
0.0383203125	1.769677734375	35.92177734375	-60.597685546875	0.000182144878753541	-0.00667241759229769	0.00165577886244376	-0.0352770021984297
0.025751953125	2.047939453125	35.7866015625	-59.041318359375	0.00042293384302795	-0.00727493456616341	0.00489002395562185	-0.0396189501583479
-0.0017578125	2.34931640625	35.518359375	-57.29888671875	0.000619758917921557	-0.00768212976630766	0.00789038299807101	-0.0440021468616523
-0.04833984375	2.676181640625	35.1253125	-55.399482421875	0.00162365730474544	-0.00843819821704073	0.01111312323534	-0.0485839173779486
-0.124453125	3.056220703125	34.561142578125	-53.161962890625	0.0017266334350362	-0.00910544918015523	0.014370669496686	-0.0531653350786636
-0.219287109375	3.430986328125	33.91681640625	-50.987548828125	0.00241308983761502	-0.0100656597941401	0.0179023227850194	-0.0581001972927153
-0.342685546875	3.8647265625	33.10505859375	-48.48802734375	0.00310586624103994	-0.0111138902257339	0.0215703469653958	-0.0629159612383956
-0.50466796875	4.372294921875	32.06759765625	-45.655927734375	0.00353634726954428	-0.011966952281685	0.0254101156347838	-0.0683748619692049
-0.661201171875	4.86140625	30.9825	-42.78990234375	0.00379181642995876	-0.0128613091004459	0.0295794907560649	-0.0739359258204873
-0.817998046875	5.395078125	29.707119140625	-39.67576171875	0.00326121247542912	-0.0135396660844647	0.0338249666642329	-0.0798473202041071
-0.9116015625	5.9765625	28.142314453125	-36.08296875	-1.35603901649091E-05	-0.0134174231554781	0.0379728046952521	-0.085826685276438
-0.9116015625	6.5056640625	26.50763671875	-32.49017578125	0	-0.0126200599419352	0.0425821868657302	-0.0915890687663225
-0.852978515625	6.988095703125	24.651650390625	-28.579306640625	-0.00603756430342334	-0.0106908490040508	0.0467149151859887	-0.0968486133539382
-0.481552734375	7.34994140625	22.7232421875	-24.73857421875	-0.013333361008302	-0.00731214894007752	0.0502678141082343	-0.100043665237986
0.2380078125	7.5483984375	20.639091796875	-20.604990234375	-0.0232971798179344	-0.00297020098015933	0.0528582014453131	-0.101210426365059
1.3489453125	7.520537109375	18.551337890625	-16.6566796875	-0.0363192347651429	0.00536813508759004	0.053811325068058	-0.0992587426086326
3.094453125	7.174248046875	16.340712890625	-12.72005859375	-0.0539041002261093	0.0158622663954024	0.052528610333228	-0.0929905289539427
5.076650390625	6.593642578125	14.508896484375	-9.561533203125	-0.0611914293570388	0.021207913324642	0.0495091532299697	-0.0786253511084773
7.69798828125	5.6253515625	12.668818359375	-6.558486328125	-0.0827209877732847	0.0355790430155644	0.0550234613468373	-0.0497932924913097
7.9955859375	5.54185546875	12.574248046875	-6.45732421875	-0.000103758460492585	-0.000172005265745617	-4.19390347407934E-05	-0.000358000436276751
7.99751953125	5.5444921875	12.57451171875	-6.452578125	-2.89001980437655E-05	-8.51359337276531E-06	0	-4.23225299377648E-05
7.9976953125	5.54484375	12.57486328125	-6.452314453125	0	5.21553467881118E-07	1.87145656122048E-06	0
7.9976953125	5.54484375	12.5750390625	-6.452314453125	0	1.34836911255148E-05	-7.66990393942821E-08	0
7.9976953125	5.54484375	12.575126953125	-6.452314453125	0	6.55009796427169E-06	4.2951462060798E-07	0
7.9976953125	5.54484375	12.575126953125	-6.452314453125	0	4.90873852123405E-07	0	0
7.9976953125	5.54484375	12.57521484375	-6.452314453125	0	-1.5493205957645E-06	0	0
7.9976953125	5.544755859375	12.57521484375	-6.452314453125	0	1.07378655151995E-07	-3.15693246146865E-05	0
7.9976953125	5.54484375	12.575302734375	-6.45240234375	0	-4.44854428486836E-07	0	0
7.9976953125	5.54484375	12.575302734375	-6.45240234375	0	-3.19068003880213E-06	0	0
7.9976953125	5.54484375	12.575302734375	-6.45240234375	0	3.06796157577128E-07	0	0
7.9976953125	5.54484375	12.575302734375	-6.45240234375	0	-5.82912699396544E-07	0	0
7.9976953125	5.54484375	12.575302734375	-6.45240234375	0	-1.53398078788564E-08	0	0
7.9976953125	5.54484375	12.575302734375	-6.45240234375	0	-5.69106872305573E-06	0	0
7.9976953125	5.54484375	12.575302734375	-6.45240234375	0	-1.99417502425133E-07	0	0
7.9976953125	5.54484375	12.575302734375	-6.45240234375	0	9.20388472731385E-08	0	0
7.9976953125	5.54484375	12.575302734375	-6.45240234375	0	3.098641191529E-06	0	0
7.9976953125	5.54484375	12.575302734375	-6.45240234375	0	-8.43689433337103E-07	0	0
7.9976953125	5.54484375	12.575302734375	-6.45240234375	0	-4.31048601395865E-06	0	0
8.134541015625	5.390419921875	12.385283203125	-6.16095703125	-0.0525336571300202	0.0509663275998059	0.0620547230648451	-0.0639915272076295
12.191396484375	3.8007421875	10.513212890625	-3.390380859375	-0.0947416293825457	0.0412466571723734	0.0369421690232953	-0.0515348362196042
15.81591796875	2.16	9.13623046875	-1.615341796875	-0.0993046853332297	0.0458010461316058	0.0305037448603817	-0.0364676780859866
19.908544921875	0.259716796875	7.9857421875	-0.41255859375	-0.101534602524963	0.0488751743101444	0.0244520219142862	-0.0235277064507378
23.980078125	-1.714306640625	7.033798828125	0.37880859375	-0.0996841768403448	0.0499491142597432	0.0195922787394172	-0.0129766337760792
27.932958984375	-3.69509765625	6.2666015625	0.80173828125	-0.0954583512260695	0.0497381458819853	0.0158218920210652	-0.00580378563134957
31.96986328125	-5.80693359375	5.60724609375	0.969697265625	-0.0907806608911068	0.0488023869217593	0.0131744252588692	-0.00058792881657293
35.935576171875	-7.955947265625	5.054765625	0.95431640625	-0.0859782272384732	0.047642789484965	0.0112672422850988	0.00279259668453793
39.492685546875	-9.952998046875	4.5931640625	0.831005859375	-0.0801192796579913	0.0461634797723596	0.0098478038426446	0.00368193738612251
42.906533203125	-11.942841796875	4.18095703125	0.657685546875	-0.0741011048717268	0.0446881430699948	0.00885300196189289	0.00389043605481193
45.82248046875	-13.748291015625	3.839326171875	0.49447265625	-0.0685301468443625	0.0430876488751464	0.00820397469053847	0.00393791276019699
48.605625	-15.507861328125	3.504462890625	0.3378515625	-0.0631284635969414	0.0416934597564608	0.0076263082054365	0.00363154611724047
51.195322265625	-17.263212890625	3.184365234375	0.208125	-0.0580657134046037	0.0400656453637802	0.00730524602653203	0.00262649724482567
53.398037109375	-18.809208984375	2.9053125	0.11759765625	-0.0532372634378075	0.0383934222272903	0.00707904521955041	0.00204076202077942
55.371533203125	-20.30501953125	2.62951171875	0.050712890625	-0.0486095962163378	0.037283218971866	0.0068643032490543	0.00113356578282385
57.299150390625	-21.828427734375	2.353447265625	0.002548828125	-0.0441145416339807	0.0362769735944366	0.00682276304931836	0.00054634259741335
59.12578125	-23.35939453125	2.063671875	-0.026630859375	-0.0397135660933447	0.0349582716703229	0.00654494378882439	0.000260546636822376
60.69287109375	-24.810556640625	1.792529296875	-0.038232421875	-0.0351427942192976	0.0334902213767005	0.00636207793910055	0.000195551870839662
62.03373046875	-26.125751953125	1.54177734375	-0.041748046875	-0.030655532259343	0.0320217108888419	0.00622359015357023	1.53398078788564E-08
63.136494140625	-27.34716796875	1.299375	-0.039111328125	-0.0261870155446164	0.030451926989367	0.00601769925222022	-0.00011388273369263
64.157783203125	-28.603212890625	1.049853515625	-0.032783203125	-0.0214998758880003	0.0288084199732263	0.00594132234879139	-0.000154671282842509
64.972705078125	-29.7646875	0.802705078125	-0.025927734375	-0.0168355158460843	0.0267513363968638	0.0056530720189398	-0.000140282543052142
65.59119140625	-30.88107421875	0.558017578125	-0.019248046875	-0.0120570736529733	0.0248234600222648	0.00556058831723818	-0.000142353417115788
65.994609375	-31.904033203125	0.317109375	-0.014326171875	-0.00742509594548954	0.0228645205367112	0.00536015838749304	-8.9308361470702E-05
66.185068359375	-32.8412109375	0.071982421875	-0.0123046875	-0.00298531069092	0.0206000887772502	0.00554320831491143	-4.61728217153578E-06
66.1482421875	-33.681533203125	-0.170244140625	-0.012216796875	0.00202806065985573	0.0179804330867385	0.00561736094619782	3.19681596195368E-05
65.906455078125	-34.323046875	-0.3884765625	-0.01599609375	0.00864384368146468	0.0141173632491825	0.00553362093498715	0.000153781573985536
65.484755859375	-34.848369140625	-0.606708984375	-0.02109375	0.0112790232575498	0.0128802230835606	0.00548849122020755	0.000151097107606736
64.8889453125	-35.28017578125	-0.822568359375	-0.0270703125	0.0164336742388898	0.0104731311108262	0.00550800345582946	0.00015010002009461
64.1084765625	-35.6058984375	-1.048359375	-0.033310546875	0.0213382863518044	0.00746389031961516	0.00564923706697009	0.000146326427356411
63.14783203125	-35.82193359375	-1.282236328125	-0.03919921875	0.0260564277601437	0.00497285891816767	0.00582658058585755	0.000144623708681858
61.968251953125	-35.93126953125	-1.533955078125	-0.041572265625	0.030592224872227	0.00117743763335738	0.00610617926406546	1.41739824800633E-05
60.632490234375	-35.919404296875	-1.7915625	-0.0376171875	0.0349929242963212	-0.00172850489159742	0.0064917606749084	-0.000195996725268148
59.154169921875	-35.78677734375	-2.05400390625	-0.02478515625	0.0395224934464057	-0.00473202393446963	0.00694423898791102	-0.000495889969299791
57.4948828125	-35.532685546875	-2.347294921875	0.004130859375	0.0439845521020153	-0.00763469908034623	0.0075796598496769	-0.000901443810000997
55.39974609375	-35.09912109375	-2.7108984375	0.057041015625	0.0485452150426702	-0.010876199902651	0.00829828382937768	-0.00133974814052356
53.2838671875	-34.562197265625	-3.07705078125	0.132451171875	0.0531261265297252	-0.0143806863912309	0.00911146238484374	-0.0019731594874573
50.9878125	-33.874892578125	-3.477041015625	0.2344921875	0.0579544230984426	-0.0178541404484719	0.0100158360981496	-0.00328521927475953
48.343623046875	-33.01171875	-3.93837890625	0.3751171875	0.0625232314770812	-0.0210238356300957	0.0110355191472808	-0.00323022606351383
45.67552734375	-32.039296875	-4.407626953125	0.5241796875	0.0683822557566025	-0.025257009012345	0.0120336190867265	-0.00368545020212677
42.577734375	-30.83484375	-4.956767578125	0.70400390625	0.0731532581428923	-0.029051832044648	0.0128629351200811	-0.00427293416427121
39.446982421875	-29.53248046875	-5.495185546875	0.855439453125	0.0793312583874465	-0.0334310710775197	0.01344047888672	-0.0037780719620993
35.836875	-27.951328125	-6.070341796875	0.966796875	0.0851282638237137	-0.0376125953266408	0.0135434856966266	-0.00229759642409511
32.3855859375	-26.360771484375	-6.57140625	0.968203125	0.0914655066138583	-0.0422837815830629	0.0128527648274574	0.000164274002574673
28.302890625	-24.44537109375	-7.061572265625	0.788203125	0.096116490343304	-0.0462572366781151	0.010941163989018	0.00718877086530788
23.992822265625	-22.270693359375	-7.4334375	0.31376953125	0.100088564855647	-0.0507631978638741	0.00554843918939812	0.020458548369952
19.86521484375	-20.139697265625	-7.57353515625	-0.511962890625	0.101509429900234	-0.0525813025732919	0.00221172417958928	0.0268311340774496
15.93123046875	-18.04341796875	-7.466923828125	-1.808701171875	0.099741378983925	-0.0539350559584088	-0.00371609913826872	0.0361574918308682
12.186650390625	-15.978955078125	-7.064736328125	-3.5919140625	0.093172075580189	-0.0531046507986948	-0.0131524739937945	0.0491573193964602
8.77517578125	-13.95421875	-6.288486328125	-6.049423828125	0.0821181179838378	-0.049671448397328	-0.0230380137638211	0.0668229182662931
5.955556640625	-12.250107421875	-5.487626953125	-8.5313671875	0.00148339010150117	0.0109551385539956	0.00950922360314248	-0.0137818202916404
6.4546875	-12.573720703125	-5.54203125	-7.996201171875	0.000135020988949694	0.000113131083106566	1.41893222879422E-05	9.81287510010445E-05
6.452490234375	-12.57521484375	-5.542822265625	-7.99822265625	0	1.11367005200498E-05	1.71652450164403E-05	-1.76407790606849E-06
6.452314453125	-12.575390625	-5.543349609375	-7.997783203125	0	-3.57417523577354E-06	-1.99417502425133E-07	-4.39485495729236E-05
6.45240234375	-12.575302734375	-5.5437890625	-7.997607421875	0	-1.65976721249226E-05	-5.36893275759974E-07	0
6.45240234375	-12.575390625	-5.544052734375	-7.997607421875	0	1.30388366970279E-06	4.60194236365692E-08	0
6.45240234375	-12.575390625	-5.54431640625	-7.997607421875	0	1.67664100115901E-05	-1.38058270909708E-07	0
6.45240234375	-12.575302734375	-5.544404296875	-7.997607421875	0	1.13361180224749E-05	1.53398078788564E-07	0
6.45240234375	-12.575302734375	-5.544580078125	-7.9976953125	0	3.40543734910612E-06	0	0
6.45240234375	-12.575302734375	-5.54466796875	-7.9976953125	0	-7.05631162427395E-07	0	0
6.45240234375	-12.575302734375	-5.544755859375	-7.9976953125	0	3.40543734910612E-06	0	0
6.45240234375	-12.57521484375	-5.544755859375	-7.9976953125	0	-8.59029241215959E-07	0	0
6.45240234375	-12.575302734375	-5.544755859375	-7.9976953125	0	-6.2279619988157E-06	0	0
6.45240234375	-12.575302734375	-5.54484375	-7.9976953125	0	7.4244670133665E-06	0	0
6.45240234375	-12.575302734375	-5.54484375	-7.9976953125	0.000677896789782423	0.0010951549038952	0.00594572487365262	-0.0118545268297408
3.894521484375	-11.36197265625	-4.8976171875	-9.763330078125	0.0535733432886254	-0.0332089813390496	-0.0345082477265808	0.120672101980196
1.943701171875	-10.09072265625	-3.464560546875	-13.559765625	0.037571546000757	-0.0256312236255497	-0.0387950183975588	0.0907159115620502
0.62560546875	-9.12322265625	-1.9096875	-17.160556640625	0.0300252195536008	-0.0219232699252646	-0.0408503225562074	0.0925013271408781
-0.23958984375	-8.37439453125	-0.274658203125	-20.81724609375	0.0189467029248356	-0.0179037187075364	-0.0418569974482573	0.0922384335134503
-0.710771484375	-7.812158203125	1.4255859375	-24.50970703125	0.00956668652345668	-0.0133484553792548	-0.0425115010310245	0.0915679151712576
-0.9130078125	-7.368837890625	3.11115234375	-28.07771484375	5.21706865959907E-05	-0.01003984289748	-0.0422540530353936	0.0892734940873934
-0.913359375	-7.001630859375	4.9123828125	-31.7724609375	0	-0.00776214220420377	-0.0411588827916906	0.0854612910527636
-0.89244140625	-6.737431640625	6.4908984375	-35.04181640625	-0.00314048818742252	-0.0061126833426061	-0.0397963243568511	0.0813238073920627
-0.746103515625	-6.507333984375	8.022744140625	-38.130732421875	-0.00382616225979952	-0.0054154737347042	-0.0381590913221329	0.0766859085187378
-0.580693359375	-6.29560546875	9.552041015625	-41.131845703125	-0.00429697164321738	-0.00521930827154938	-0.0365471689704148	0.071805364564385
-0.4134375	-6.08255859375	11.064111328125	-44.02951171875	-0.0036934115624159	-0.00510211213935492	-0.0349856378875787	0.0680187943487209
-0.277822265625	-5.884541015625	12.410947265625	-46.643203125	-0.002834121544466	-0.00514400515467207	-0.0333137982462858	0.0633739925618504
-0.161455078125	-5.6703515625	13.790830078125	-49.17234375	-0.00229222749133751	-0.00466824101330934	-0.0318923042695758	0.0594017953310442
-0.080244140625	-5.465830078125	15.03544921875	-51.42990234375	-0.00210525057310213	-0.00520893856142327	-0.0304269998015638	0.0551175097089426
-0.02126953125	-5.244697265625	16.289296875	-53.655908203125	-0.00138131901987526	-0.0050377002860716	-0.028953565235376	0.0511944765623881
0.016962890625	-5.021455078125	17.488740234375	-55.71685546875	-0.000883327496896068	-0.00485817851446534	-0.0276008089377712	0.0465872266252051
0.03568359375	-4.7963671875	18.60767578125	-57.588310546875	-0.000350008396371867	-0.00477762918329347	-0.0259619192038021	0.0405186605700586
0.042890625	-4.578486328125	19.678447265625	-59.244169921875	-7.58706897688238E-05	-0.00539218790634409	-0.0235952016054048	0.0339169748318903
0.04166015625	-4.33916015625	20.7502734375	-60.813896484375	0.000144163514445493	-0.00501168397190906	-0.0214750253992366	0.0296790767888144
0.036298828125	-4.145537109375	21.595693359375	-61.987939453125	0.000136877105703036	-0.00471039480536044	-0.0195710024258893	0.0255585742954354
0.029091796875	-3.937236328125	22.424853515625	-63.02126953125	0.000192023715027525	-0.00450108312685344	-0.017702813243747	0.0211176078756592
0.02109375	-3.744404296875	23.147841796875	-63.799013671875	0.00019986235685362	-0.00459832216899751	-0.0156412044240602	0.0151753037791636
0.014853515625	-3.5803125	23.715615234375	-64.334443359375	0.000133563707201203	-0.00412785026135299	-0.0138225781611745	0.00941152436676205
0.009580078125	-3.405673828125	24.24990234375	-64.70455078125	0.000116766617573855	-0.00435587650547219	-0.0122236793063455	0.00417986754987019
0.005625	-3.240966796875	24.696474609375	-64.879189453125	7.84017580688351E-05	-0.00395260829614493	-0.0108708156300855	0.00152960894264017
0.002548828125	-3.07916015625	25.064033203125	-64.8587109375	7.60547674633701E-05	-0.00437647786745349	-0.00886680778898386	-0.00223968864935243
0.000439453125	-2.91779296875	25.34712890625	-64.635205078125	4.24759280165534E-05	-0.00424918814167474	-0.00650443135621633	-0.00632437269133432
-0.00087890625	-2.75818359375	25.53943359375	-64.20515625	1.05844674364109E-05	-0.00427390057216758	-0.00406828578735939	-0.0115488044587152
-0.001669921875	-2.6082421875	25.634267578125	-63.56478515625	-8.74369049094815E-07	-0.00345553716163847	-0.0016584326492068	-0.0167740032164901
-0.00193359375	-2.460673828125	25.640859375	-62.730615234375	-7.51650586063964E-07	-0.00340618899969219	0.0011238096650129	-0.0220511885831664
-0.00193359375	-2.313544921875	25.541103515625	-61.682431640625	0	-0.00392105431133812	0.00353169930775699	-0.0269200589437233
-0.001669921875	-2.17529296875	25.353369140625	-60.508828125	-1.53398078788564E-08	-0.00362757310699984	0.00597572953786367	-0.0319254075749784
-0.001318359375	-2.035458984375	25.05744140625	-59.108466796875	-4.31048601395865E-06	-0.0027176770628576	0.00833411762058269	-0.0364045087571414
-0.0010546875	-1.9121484375	24.70025390625	-57.624697265625	0	-0.00306779283788462	0.0108317758190338	-0.041072212877175
-0.000703125	-1.769853515625	24.18556640625	-55.79595703125	1.67203905879535E-06	-0.00345963289034212	0.0133106427528334	-0.0451266774976356
-0.000439453125	-1.63037109375	23.55521484375	-53.724111328125	9.20388472731385E-08	-0.00256754636314723	0.0158427541597805	-0.0498851626006962
-0.000263671875	-1.51681640625	22.93083984375	-51.7812890625	1.99417502425133E-07	-0.00244726692956912	0.0187001615326066	-0.0543012478520929
-8.7890625E-05	-1.390693359375	22.14298828125	-49.5059765625	7.51650586063964E-07	-0.00293398369375735	0.0216526143550501	-0.0591281178186775
0	-1.264306640625	21.25107421875	-47.078349609375	1.91747598485705E-06	-0.00295495321112775	0.024658449708912	-0.0641436827619799
0	-1.141259765625	20.223544921875	-44.405595703125	-1.87145656122048E-06	-0.00258351510314912	0.0278902711124452	-0.0696549996163112
8.7890625E-05	-1.02005859375	19.0810546875	-41.48806640625	0	-0.00229670671523814	0.0312808748673325	-0.0758345952008849
8.7890625E-05	-0.890595703125	17.732900390625	-38.270654296875	0	-0.00302056156942562	0.034677399788061	-0.0806668954594586
8.7890625E-05	-0.775986328125	16.33166015625	-34.98134765625	0	-0.00286022989747581	0.0381987600653076	-0.0868700223093184
8.7890625E-05	-0.65126953125	14.65611328125	-31.07408203125	0	-0.00259999005681101	0.0412815092158741	-0.0921425136947838
8.7890625E-05	-0.53595703125	12.8816015625	-27.124189453125	0	-0.00248865373122627	0.0440715901719199	-0.0966205717700111
8.7890625E-05	-0.426884765625	11.060771484375	-23.079814453125	0	-0.00232353603921826	0.0459744013004448	-0.0992938247492515
0	-0.32853515625	9.20953125	-19.1485546875	7.66990393942821E-08	-0.00127769861765359	0.0464941906904198	-0.0995840385745116
0	-0.241787109375	7.360400390625	-15.136875	0	-0.00125419803198318	0.0450270147658466	-0.0956246194036684
0	-0.170068359375	5.620341796875	-11.466826171875	0	-0.0026202386032111	0.0412652030000989	-0.0856305044734753
0	-0.10388671875	3.905068359375	-7.936171875	0	-0.00105310849049925	0.0353477187127513	-0.0707198583996457
0	-0.05677734375	2.600859375	-5.185634765625	0	-0.000667649798119347	0.0280429328804556	-0.0541412383161085
0	-0.0228515625	1.50591796875	-2.938271484375	0	-0.00072502067958627	0.0204242485595349	-0.0385799236114815
0	0.002021484375	0.713056640625	-1.344375	0	-0.000703100094127384	0.0179902198841652	-0.0336326821724715
0	0.0140625	0.24275390625	-0.38302734375	0	-0.00027981343551822	0.0119216384892108	-0.0242663488797205
0	0.0228515625	-0.09052734375	0.29548828125	0	-0.000231600419354974	-0.00218468009829885	0.00563719531778519
0	0.0235546875	-0.113818359375	0.3202734375	0	-1.93588375431168E-05	3.99755393322998E-05	-1.94815560061476E-06
0	0.023291015625	-0.113818359375	0.320185546875	0	1.34683513176359E-05	0	1.53398078788564E-08
0	0.023291015625	-0.113818359375	0.32009765625	0	8.52893318064417E-06	-3.05262176789243E-06	0
0	0.023291015625	-0.11373046875	0.32009765625	0	-9.8174770424681E-07	0	0
0	0.023291015625	-0.11373046875	0.32009765625	0	0	0	-1.38058270909708E-07
0	0.023291015625	-0.11373046875	0.320185546875	0	0	0	0
0	0.023291015625	-0.113642578125	0.320185546875	0	1.97883521637248E-06	0	0
0	0.02337890625	-0.113642578125	0.320185546875	0	1.15048559091423E-06	0	0
0	0.023291015625	-0.113642578125	0.320185546875	0	0	0	0
0	0.023291015625	-0.113642578125	0.320185546875	0	-3.75825293031982E-06	0	0
0	0.023291015625	-0.113642578125	0.320185546875	0	-1.53398078788564E-08	0	0
0	0.023291015625	-0.113642578125	0.320185546875	0	0	0	0
0	0.023291015625	-0.113642578125	0.320185546875	0	0	0	0
0	0.023291015625	-0.113642578125	0.320185546875	0	1.38058270909708E-07	0	0
0	0.023291015625	-0.113642578125	0.320185546875	0	0	0	0
0	0.023291015625	-0.113642578125	0.320185546875	0	1.38058270909708E-07	0	0
0	0.023291015625	-0.113642578125	0.320185546875	0	0	0	0
0	0.023291015625	-0.113642578125	0.320185546875	0	0	0	0
0	0.023291015625	-0.113642578125	0.320185546875	0	-1.07378655151995E-07	0	0
0	0.023291015625	-0.113642578125	0.320185546875	0	0	0	0
0	0.023291015625	-0.113642578125	0.320185546875	0	0	0	0
0	0.023291015625	-0.113642578125	0.320185546875	0	0	0	0
0	0.023291015625	-0.113642578125	0.320185546875	0	1.38058270909708E-07	0	0
0	0.023291015625	-0.113642578125	0.320185546875	0	-5.7370881466923E-06	0	0
0	0.023291015625	-0.113642578125	0.320185546875	0	0	0	0
0	0.023291015625	-0.113642578125	0.320185546875	0	0	0	0
0	0.023291015625	-0.113642578125	0.320185546875	0	-7.66990393942821E-08	0	0
0	0.023291015625	-0.113642578125	0.320185546875	0	-3.68155389092554E-07	0	0
0	0.023291015625	-0.113642578125	0.320185546875	0	0	0	0
0	0.023291015625	-0.113642578125	0.320185546875	0	-4.60194236365692E-08	0	0
0	0.023291015625	-0.113642578125	0.320185546875	0	0	0	0
0	0.023291015625	-0.113642578125	0.320185546875	0	0	0	0
0	0.023291015625	-0.113642578125	0.320185546875	0	0	0	0
0	0.023291015625	-0.113642578125	0.320185546875	0	0	0	0
0	0.023291015625	-0.113642578125	0.320185546875	0	0	0	0
0	0.023291015625	-0.113642578125	0.320185546875	0	-1.06765062836841E-05	0	0
0	0.023291015625	-0.113642578125	0.320185546875	0	0	0	0
0	0.023291015625	-0.113642578125	0.320185546875	0	0	0	0
0	0.023291015625	-0.113642578125	0.320185546875	0	0	0	0
0	0.023291015625	-0.113642578125	0.320185546875	0	0	0	0
0	0.023291015625	-0.113642578125	0.320185546875	0	0	0	0
0	0.023291015625	-0.113642578125	0.320185546875	0	0	0	0
0	0.023291015625	-0.113642578125	0.320185546875	0	0	0	0
0	0.023291015625	-0.113642578125	0.320185546875	0	1.53398078788564E-06	0	0
0	0.023291015625	-0.113642578125	0.320185546875	0	9.44932165337555E-06	0	0
0	0.02337890625	-0.113642578125	0.320185546875	0	9.35728280610241E-07	0	0
0	0.023291015625	-0.113642578125	0.320185546875	0	0	0	0
0	0.023291015625	-0.113642578125	0.320185546875	0	0	0	0
0	0.023291015625	-0.113642578125	0.320185546875	0	0	0	0
0	0.023291015625	-0.113642578125	0.320185546875	0	1.38058270909708E-07	0	0
0	0.023291015625	-0.113642578125	0.320185546875	0	0	0	0
0	0.023291015625	-0.113642578125	0.320185546875	0	0	0	0
0	0.023291015625	-0.113642578125	0.320185546875	0	0	0	0
0	0.023291015625	-0.113642578125	0.320185546875	0	0	0	0
0	0.023291015625	-0.113642578125	0.320185546875	0	0	0	0
0	0.023291015625	-0.113642578125	0.320185546875	0	0	0	3.49747619637926E-06
0	0.023291015625	-0.113642578125	0.320185546875	0	0	0	0
0	0.023291015625	-0.113642578125	0.320185546875	0	0	0	0
0	0.023291015625	-0.113642578125	0.320185546875	0	0	0	0
0	0.023291015625	-0.113642578125	0.320185546875	0	7.66990393942821E-08	0	0
0	0.023291015625	-0.113642578125	0.320185546875	0	0	0	-1.96349540849362E-06
0	0.023291015625	-0.113642578125	0.320185546875	0	0	0	0
0	0.023291015625	-0.113642578125	0.320185546875	0	0	0	0
0	0.023291015625	-0.113642578125	0.320185546875	0	0	0	0
0	0.023291015625	-0.113642578125	0.320185546875	0	9.66407896367954E-07	0	0
0	0.023291015625	-0.113642578125	0.320185546875	0	0	0	0
0	0.023291015625	-0.113642578125	0.320185546875	0	0	0	0
0	0.023291015625	-0.113642578125	0.320185546875	0	0	0	0
0	0.023291015625	-0.113642578125	0.320185546875	0	0	0	0
0	0.023291015625	-0.113642578125	0.320185546875	0	0	0	0
-0.28951171875	0.1691015625	0.0158203125	8.7890625E-05	-0.0119317934420266	0.00619493539245253	0.000167142546648019	0
0.444287109375	-0.19388671875	0.002021484375	0	-0.0199272541240678	0.00946050437331924	0.00032581751934691	0
1.515498046875	-0.723779296875	-0.01546875	0	-0.0313870723572778	0.0153499781714801	0.000774721657113764	0
2.98880859375	-1.475771484375	-0.0467578125	0	-0.0440151550187336	0.0218160753478072	0.00077235932670042	0
4.996142578125	-2.49451171875	-0.09087890625	0	-0.0573193857318737	0.0288210292953027	0.00146722194399686	0
7.655537109375	-3.83712890625	-0.1522265625	0	-0.0694605982310625	0.0352026808292567	0.00221693971426809	0
10.56427734375	-5.3325	-0.22587890625	0	-0.0789662169793534	0.0403708922007616	0.001648783910051	0
13.862197265625	-7.042587890625	-0.311044921875	0	-0.0854182782314713	0.0445540884889415	0.00251625004560033	0
17.519326171875	-8.92564453125	-0.41150390625	0	-0.0891356198941782	0.0468362837459262	0.0024531574157946	0
21.13154296875	-10.828125	-0.515302734375	0	-0.0903485691827751	0.048144600620106	0.00276878930270995	0
24.765908203125	-12.778681640625	-0.625517578125	0	-0.0898963823261222	0.048714919337234	0.00297110602882418	0
28.44896484375	-14.8278515625	-0.744873046875	-8.7890625E-05	-0.0881198791756719	0.0485894550485928	0.00317965071693724	0
32.04298828125	-16.803720703125	-0.86326171875	-8.7890625E-05	-0.085406543278444	0.0479818145788956	0.00307423555719373	0
35.692294921875	-18.859658203125	-0.992548828125	-8.7890625E-05	-0.0821423855599021	0.0472263750602855	0.00332430510523485	0
39.250283203125	-20.94662109375	-1.1281640625	-0.00017578125	-0.0784706491460191	0.0462114780312125	0.00296033748369323	0
42.69146484375	-23.008359375	-1.26720703125	-0.00017578125	-0.074688619513487	0.0449877295178689	0.00313806449777766	-2.35312652861657E-05
45.8314453125	-24.92525390625	-1.401240234375	0	-0.0709579782373491	0.0436368139972095	0.00362162126154285	-9.20388472731385E-07
48.8696484375	-26.81138671875	-1.539931640625	0.000263671875	-0.0664279642328362	0.0420653273790601	0.00326158063081821	3.52815581213698E-07
51.1203515625	-28.307900390625	-1.6576171875	0.000439453125	-0.0618979348885153	0.04055647319648	0.00345055172407784	-1.53398078788564E-08
53.48056640625	-29.891513671875	-1.787431640625	0.000703125	-0.0567822930386113	0.0388453943266329	0.00294682311295195	6.44271930911969E-07
55.638984375	-31.39259765625	-1.92005859375	0.000966796875	-0.0516035585589015	0.0367845985167637	0.0031520390627553	-4.39485495729236E-05
57.7016015625	-32.88181640625	-2.057607421875	0.001318359375	-0.0465369580747861	0.0345013294732275	0.00348500493257375	9.66407896367954E-07
59.549326171875	-34.300107421875	-2.20869140625	0.00158203125	-0.0418288489007996	0.0322541396578223	0.00353731367744065	-7.59320490003392E-06
61.041005859375	-35.513173828125	-2.34791015625	0.00193359375	-0.035508817375095	0.0295207699715046	0.00364811310974963	-7.97670009700533E-07
62.26505859375	-36.58939453125	-2.489853515625	0.00193359375	-0.0290799959319136	0.026455124706723	0.0037518869100501	1.53398078788564E-08
63.290390625	-37.577900390625	-2.638740234375	0.00193359375	-0.0227087447877015	0.023445132264926	0.00361603757147494	0
64.0958203125	-38.48677734375	-2.79703125	0.00087890625	-0.0162260039198258	0.020194657655012	0.00376986516488412	-3.55883542789469E-06
64.596708984375	-39.20765625	-2.952421875	-0.00052734375	-0.00963261701772001	0.0167731595270568	0.00391712732052114	2.97438874771026E-05
64.836650390625	-39.798896484375	-3.1144921875	-0.002900390625	-0.00281930329005502	0.0129605883370379	0.0041029537531656	5.90122409099606E-05
64.7926171875	-40.259091796875	-3.291767578125	-0.006943359375	0.00327676704061828	0.0095414218598802	0.0039216525638454	7.08238929766801E-05
64.452744140625	-40.5425390625	-3.46306640625	-0.011865234375	0.0100867673697814	0.00572986309718136	0.00434710213536548	0.000149256330661273
63.8511328125	-40.654423828125	-3.635771484375	-0.018017578125	0.0170526354868016	0.000683189023500628	0.00422424561406372	0.00014218467922912
62.98083984375	-40.61197265625	-3.81515625	-0.024873046875	0.0237206352144302	-0.0028184442608138	0.00442238991243491	0.000183862937235973
61.9006640625	-40.41439453125	-3.998232421875	-0.031728515625	0.0302476467678442	-0.00645870338892946	0.00441370758117548	0.000145789534080651
60.53537109375	-40.067490234375	-4.1867578125	-0.038408203125	0.0364513872100192	-0.0102169409794414	0.00480798666308572	0.0001526464282025
58.780634765625	-39.512021484375	-4.402177734375	-0.04306640625	0.0421186025318233	-0.0135755152154776	0.0050444498015383	6.08530178554234E-05
56.9246484375	-38.85380859375	-4.607666015625	-0.042275390625	0.0481840085865468	-0.0175021685566915	0.00514040029982054	-4.67097149911178E-05
54.738369140625	-38.015947265625	-4.832490234375	-0.03216796875	0.0535962763014043	-0.0210998136985197	0.00548488636535602	-0.000189998860387516
52.411552734375	-37.040537109375	-5.073134765625	-0.007734375	0.0586931575662725	-0.0243339207334269	0.00577114252018336	-0.000338472860846967
49.840751953125	-35.933115234375	-5.32775390625	0.031640625	0.0638908367087127	-0.0277257670127524	0.00632290006977795	-0.00111452908124619
46.99880859375	-34.652900390625	-5.607333984375	0.0966796875	0.0681761347581343	-0.0308441198574057	0.00683342421579416	-0.00126547279077414
44.0405859375	-33.277236328125	-5.912841796875	0.189140625	0.0726179141877281	-0.0338270221984887	0.00746257109613758	-0.00254410713670834
40.8258984375	-31.75927734375	-6.2441015625	0.310693359375	0.0766036411290835	-0.0371633843927163	0.00806949059486454	-0.00352668319058061
37.289970703125	-30.035390625	-6.622294921875	0.469951171875	0.0834846647687257	-0.0409408887819241	0.00901813499370878	-0.00354530571734554
33.524384765625	-28.18177734375	-7.029580078125	0.64810546875	0.0868373485185364	-0.0439554524864691	0.00936576571985942	-0.00424019901425773
29.6799609375	-26.223486328125	-7.44662109375	0.820634765625	0.0885117499077451	-0.0454103565647392	0.00938828455782558	-0.00353447581298306
25.94091796875	-24.315908203125	-7.829384765625	0.9439453125	0.0898293780453074	-0.0469198550192502	0.00891078701817254	-0.00234467429447532
22.374228515625	-22.440498046875	-8.162490234375	0.97892578125	0.0897157714281566	-0.0478181234890203	0.00737574778354326	0.000897317401681585
18.867216796875	-20.558759765625	-8.438642578125	0.866162109375	0.0875591324986603	-0.0477184760970393	0.0048273761802446	0.00633633774147982
15.13775390625	-18.510205078125	-8.60888671875	0.480322265625	0.0840065710521881	-0.0467359920820143	0.000921063424278054	0.0130138941694169
11.56412109375	-16.493115234375	-8.58744140625	-0.296455078125	0.0777362405040109	-0.0448379516337397	-0.0037840238075563	0.0229993727877743
8.32640625	-14.592919921875	-8.29828125	-1.578251953125	0.0692071079058643	-0.0421173600073851	-0.0102948825432739	0.0359271185961435
5.773798828125	-12.995771484375	-7.719169921875	-3.33087890625	0.0582674778976343	-0.0376147428997438	-0.0186181549196862	0.050823099813641
3.47958984375	-11.4683203125	-6.73154296875	-5.914951171875	0.0460286735407202	-0.033442683312084	-0.0271746383952808	0.0669836487732478
1.982900390625	-10.34806640625	-5.711923828125	-8.528203125	-0.0214779092831178	0.0220880501414993	0.0227608694548738	-0.00624894685599398
2.164658203125	-10.4825390625	-5.824072265625	-7.996025390625	-0.000114619044470815	9.657943040528E-05	3.51281600425812E-06	7.84324376845928E-05
2.166328125	-10.484208984375	-5.824951171875	-7.997607421875	-3.06796157577128E-08	-4.75534044244549E-07	1.92054394643282E-05	8.2374768309459E-06
2.166328125	-10.484384765625	-5.825654296875	-7.9976953125	0	1.74873809818963E-06	2.35926245176812E-05	1.06765062836841E-05
2.166328125	-10.484296875	-5.826181640625	-7.9976953125	0	-5.92116584123858E-06	4.22304910904917E-05	0
2.166328125	-10.484296875	-5.82662109375	-7.9976953125	0	2.07087406364562E-06	7.66990393942821E-08	0
2.166328125	-10.484296875	-5.826884765625	-7.9976953125	0	1.45728174849136E-06	1.68124294352266E-05	0
2.166328125	-10.484296875	-5.827060546875	-7.9976953125	0	-1.13514578303537E-06	4.31048601395865E-06	0
2.166328125	-10.484296875	-5.8271484375	-7.9976953125	0	-3.46679658062155E-06	3.19681596195368E-05	0
2.166328125	-10.484296875	-5.827236328125	-7.9976953125	0	-1.53398078788564E-08	0	-2.80718484183072E-06
2.166328125	-10.484296875	-5.827236328125	-7.9976953125	0	-4.60194236365692E-08	4.35036951444368E-05	8.59029241215959E-07
2.166328125	-10.484296875	-5.82732421875	-7.9976953125	0	6.13592315154257E-08	0	0
2.166328125	-10.484296875	-5.82732421875	-7.9976953125	0	2.45436926061703E-07	0	0
2.166328125	-10.484296875	-5.82732421875	-7.9976953125	0	-3.68155389092554E-07	0	0
2.166328125	-10.484296875	-5.82732421875	-7.9976953125	0	-4.60194236365692E-07	0	1.53398078788564E-08
2.166328125	-10.484296875	-5.8257421875	-8.026962890625	0.0155158475140742	-0.0176440004203394	-0.0208699773570708	0.0276172532118173
0.86765625	-9.2970703125	-4.145009765625	-11.904345703125	0.0199709265570989	-0.0230535836688181	-0.0441212604698317	0.0937996884797445
0.05431640625	-8.394609375	-2.41189453125	-15.656572265625	0.0127470121919406	-0.0199487912143297	-0.0477407494980793	0.100664206486109
-0.421259765625	-7.6144921875	-0.5108203125	-19.55953125	0.0102231382618245	-0.018225133702022	-0.0492156873654393	0.101626365255695
-0.671923828125	-6.948896484375	1.444921875	-23.590634765625	0.00567447105093081	-0.0166237344585088	-0.0501147688450269	0.100716315813474
-0.754453125	-6.361435546875	3.406025390625	-27.494384765625	0.000913853714574992	-0.014234927536766	-0.0502664795449488	0.0988798646938327
-0.73107421875	-5.7933984375	5.613486328125	-31.717529296875	-0.00184841616978644	-0.0125004401200958	-0.0493929235056716	0.0910216952923073
-0.629736328125	-5.3328515625	7.519130859375	-35.2634765625	-0.00284966076984728	-0.0114887797904853	-0.0485508600919696	0.0889877441462261
-0.507041015625	-4.902275390625	9.451494140625	-38.727685546875	-0.00334960044842709	-0.0104605064489419	-0.0470247486255259	0.0837365750937123
-0.380390625	-4.5052734375	11.2978125	-41.908447265625	-0.00290638737938329	-0.00973744926476411	-0.0452702580993817	0.0773437255000068
-0.262265625	-4.127080078125	13.080849609375	-44.827470703125	-0.00304220603834268	-0.00894099109988601	-0.0436470916684883	0.0715441736556318
-0.16365234375	-3.759345703125	14.87513671875	-47.737529296875	-0.00192749287940195	-0.00862012833848397	-0.042159667197515	0.0666475842622378
-0.09017578125	-3.424482421875	16.542685546875	-50.193369140625	-0.00135758833708667	-0.00816603934565406	-0.0404954974601615	0.0608187333848141
-0.03796875	-3.112734375	18.0882421875	-52.491357421875	-0.000931601872290829	-0.0079637379593477	-0.0392881318616325	0.0554816614081788
-0.00263671875	-2.813466796875	19.603037109375	-54.536748046875	-0.000497884144324043	-0.00736933574384989	-0.0381788796742966	0.050820185250144
0.01880859375	-2.51947265625	21.118447265625	-56.481328125	-0.000411336948271535	-0.00716997960065628	-0.0366529216059316	0.0463685116444684
0.029091796875	-2.22802734375	22.58244140625	-58.286865234375	-0.000126829531542385	-0.00689923199159446	-0.0353889521163296	0.0417605714159308
0.03216796875	-1.95873046875	23.981044921875	-59.88234375	-7.66990393942821E-08	-0.00651190184265333	-0.0340432367905412	0.0370966869080591
0.030849609375	-1.70349609375	25.31337890625	-61.266796875	9.12871966870745E-05	-0.00639235871985341	-0.0324976130884755	0.0328929352773215
0.026279296875	-1.44966796875	26.6066015625	-62.51712890625	0.000134714192792117	-0.00631955599166036	-0.0308675284042288	0.028512530419051
0.020478515625	-1.20708984375	27.838388671875	-63.60345703125	0.000151051088183099	-0.00609433693238299	-0.0291914242963456	0.0237268018171975
0.014765625	-0.97154296875	28.987646484375	-64.47533203125	0.00010972564575746	-0.0055073898635143	-0.0273488372535531	0.0186950687163908
0.010283203125	-0.744345703125	30.0708984375	-65.185224609375	7.99970980882362E-05	-0.00574037086557837	-0.0255485113814669	0.0134116860673314
0.007470703125	-0.51591796875	31.083837890625	-65.711162109375	6.32153482687673E-05	-0.00526069507320653	-0.0240525579773129	0.00872198466279957
0.006064453125	-0.28546875	32.04966796875	-66.0526171875	4.12640831941238E-05	-0.00563220988022456	-0.0228610690799385	0.00639923095378314
0.006328125	-0.080068359375	32.840595703125	-66.191923828125	-3.85949566232027E-05	-0.00552852811877137	-0.0205445740125366	0.000880136816857266
0.009140625	0.1620703125	33.667470703125	-66.14455078125	-0.000117625646815071	-0.00530499643836067	-0.0165818261033838	-0.00645759892276218
0.014677734375	0.4081640625	34.388876953125	-65.849326171875	-0.000134223318939994	-0.00567365804111323	-0.0135698394865624	-0.0102672708890919
0.020654296875	0.6191015625	34.90611328125	-65.40380859375	-0.000192100414066919	-0.00562481609282695	-0.0107829798901712	-0.0148901827701193
0.027421875	0.84251953125	35.33220703125	-64.76765625	-0.000163951866609217	-0.00564168988149369	-0.00813890322551636	-0.020341674373723
0.034013671875	1.06787109375	35.63701171875	-63.979189453125	-0.000170302547071064	-0.00548597549171542	-0.00693442151086856	-0.0235790027682847
0.0397265625	1.288828125	35.837578125	-63.00685546875	-0.000142430116155182	-0.00601466197026021	-0.00459712566398296	-0.0260128780455756
0.042275390625	1.54458984375	35.934697265625	-61.7934375	-1.35757299727879E-05	-0.00596713924545151	-0.00147607301314296	-0.0314160799339767
0.0383203125	1.799296875	35.915537109375	-60.481494140625	0.000193235559849954	-0.00662978826620235	0.00153625107945171	-0.0344584240305903
0.024873046875	2.07755859375	35.766826171875	-58.882587890625	0.000485735016483988	-0.00673819468848223	0.0043230032971878	-0.0387577426644132
-0.003779296875	2.372607421875	35.495771484375	-57.18568359375	0.000909604587792549	-0.0077105390904993	0.00767488937698883	-0.0432316283118974
-0.05748046875	2.726455078125	35.057021484375	-55.12833984375	0.00121233569628178	-0.00815152788740066	0.0108255938764587	-0.049352226995369
-0.13130859375	3.092607421875	34.513505859375	-52.98767578125	0.00190209015755456	-0.00902183188740758	0.0141667574305524	-0.0541073066610805
-0.230361328125	3.48310546875	33.842109375	-50.73837890625	0.00275033551383168	-0.00994910793387657	0.0174902495259697	-0.0570865427880805
-0.363955078125	3.939345703125	32.956962890625	-48.064921875	0.00343215929443109	-0.0110464564302984	0.021356448684333	-0.0649215950991325
-0.514423828125	4.4082421875	31.995263671875	-45.401572265625	0.00427926950492518	-0.0120350610286671	0.024946270524143	-0.0678774073395014
-0.674912109375	4.901484375	30.89724609375	-42.578173828125	0.00446478914141207	-0.0129503873647985	0.0294045555870144	-0.0734483500270578
-0.839794921875	5.477958984375	29.5034765625	-39.24087890625	0.00357405251731051	-0.0134156283979563	0.0332634836764432	-0.0805561880659969
-0.8926171875	6.08396484375	27.843134765625	-35.470986328125	3.43151502250018E-05	-0.0134304006329436	0.0394475124654938	-0.0903395033563188
-0.89314453125	6.599443359375	26.196943359375	-31.8234375	4.31048601395865E-06	-0.0128984774549364	0.0428940298200995	-0.0930085225485846
-0.8240625	7.043818359375	24.411181640625	-28.080791015625	-0.00561232948921356	-0.0110714142977173	0.0462278609460271	-0.09624842803087
-0.4067578125	7.3908984375	22.44234375	-24.093193359375	-0.0131225613684307	-0.00780279269508274	0.0499387138700013	-0.100068423687902
0.462041015625	7.57177734375	20.109462890625	-19.57482421875	-0.0212802405187908	-0.00209492688239966	0.0528501480461767	-0.101161829853699
1.7539453125	7.462001953125	17.910966796875	-15.48966796875	-0.0335982443037834	0.00454404992872212	0.0537503493317395	-0.0965447624394738
3.59244140625	7.031162109375	15.766611328125	-11.65078125	-0.0484458130876152	0.0122090144500133	0.0530526795296013	-0.0932360118994281
6.058916015625	6.243486328125	13.783623046875	-8.3513671875	-0.067081378689244	0.0227528927547768	0.0495582099355663	-0.0831375862756587
8.527939453125	5.522958984375	12.335537109375	-5.92892578125	0.00998170502561914	-0.00365506204271875	-0.032939338196155	0.024574111445194
7.996640625	5.54326171875	12.574423828125	-6.454599609375	-4.70318509565738E-05	-7.99970980882362E-05	-5.61130172208568E-05	-0.000148167204301874
7.997607421875	5.54466796875	12.5746875	-6.452490234375	-6.13592315154257E-08	-2.62617510886022E-05	0	-1.68124294352266E-05
7.9976953125	5.544755859375	12.57486328125	-6.452314453125	0	9.74077800307382E-06	0	0
7.9976953125	5.54484375	12.5750390625	-6.452314453125	0	-1.13514578303537E-06	-1.28547590024817E-05	0
7.9976953125	5.54484375	12.575126953125	-6.452314453125	0	5.43029198911517E-06	0	0
7.9976953125	5.544931640625	12.57521484375	-6.45240234375	0	4.61728217153578E-06	4.2951462060798E-07	2.42368964485931E-06
7.9976953125	5.54484375	12.57521484375	-6.45240234375	0	-2.85320426546729E-06	0	0
7.9976953125	5.54484375	12.575302734375	-6.45240234375	0	7.10233104791052E-06	0	0
7.9976953125	5.54484375	12.575302734375	-6.45240234375	0	-1.12747587909595E-05	0	0
7.9976953125	5.54484375	12.575302734375	-6.45240234375	0	-1.13974772539903E-05	0	0
7.9976953125	5.54484375	12.575302734375	-6.45240234375	0	-1.30388366970279E-06	0	0
7.9976953125	5.54484375	12.575302734375	-6.45240234375	0	-1.38058270909708E-06	0	0
7.9976953125	5.54484375	12.575302734375	-6.45240234375	0	-7.59320490003392E-06	0	0
7.9976953125	5.54484375	12.575302734375	-6.45240234375	0	-4.44854428486836E-06	0	0
7.9976953125	5.54484375	12.575302734375	-6.45240234375	0	1.22718463030851E-07	0	0
7.9976953125	5.54484375	12.575302734375	-6.45240234375	0	-5.35359294972089E-06	0	0
8.89892578125	4.8856640625	11.660185546875	-5.2948828125	-0.0933735639566778	0.0365918691705738	0.0420200442662017	-0.098812967791673
13.4307421875	3.243251953125	9.975673828125	-2.6419921875	-0.0989836998533647	0.0445226265429819	0.0328703090607002	-0.0405438485345957
17.4800390625	1.404755859375	8.6347265625	-1.04484375	-0.10166624875618	0.0480207163316764	0.0271036917838411	-0.0275260427141696
22.0123828125	-0.74390625	7.475537109375	0.05150390625	-0.101024814689725	0.049646505869717	0.0219662674067491	-0.0179264062833892
26.097451171875	-2.73568359375	6.61236328125	0.632197265625	-0.0980048206931912	0.0500123756274356	0.0176986868354276	-0.00902893421845549
30.030732421875	-4.74556640625	5.920576171875	0.911337890625	-0.0929274976833685	0.0493726289398479	0.0143087733718948	-0.00266006074446461
33.6097265625	-6.657890625	5.37310546875	0.985166015625	-0.0882903964800533	0.0481588973210491	0.012110287446505	0.00126872483004446
37.37759765625	-8.7553125	4.85876953125	0.913623046875	-0.0812760545701358	0.0465824866245705	0.0101947902968643	0.00330532976288871
40.873271484375	-10.75025390625	4.43056640625	0.771064453125	-0.0759388291954217	0.0450580778768013	0.00908575286683878	0.00428088018475246
43.821826171875	-12.510966796875	4.07126953125	0.6078515625	-0.0696022153374	0.0433638881354289	0.00816740458855528	0.00411128326884382
46.630107421875	-14.2541015625	3.74009765625	0.448154296875	-0.0642032779155893	0.0418795162862235	0.00770418841003745	0.00368305719209767
49.434345703125	-16.07115234375	3.403037109375	0.29689453125	-0.0595278885518084	0.0403841151151531	0.00741595341999374	0.00337965113206177
51.9591796875	-17.78396484375	3.09498046875	0.178505859375	-0.0549383407529176	0.0392650914701985	0.00717237261068538	0.00283030193230416
54.1318359375	-19.372412109375	2.80599609375	0.09052734375	-0.0500364898054211	0.0375071341474736	0.00687181975491494	0.00200258123896895
56.075361328125	-20.85046875	2.530546875	0.031025390625	-0.0449730033023052	0.0363070089382634	0.00666066729946249	0.000762020296190071
58.031015625	-22.432412109375	2.2405078125	-0.0101953125	-0.0413579781581502	0.0352751921011	0.00652035407679459	0.000555837938490362
59.67650390625	-23.861689453125	1.97103515625	-0.0312890625	-0.0366744280165778	0.0339093049279509	0.00645901018508704	0.000293557903377675
61.12388671875	-25.216875	1.71263671875	-0.040341796875	-0.0317870885273347	0.0324312837592073	0.00623007889230299	6.8799038336671E-05
62.48513671875	-26.607744140625	1.445185546875	-0.04166015625	-0.0282431633926983	0.0309758888070851	0.00613021674301163	-5.55147647135814E-05
63.564169921875	-27.85341796875	1.202431640625	-0.036826171875	-0.0230485828914496	0.0291856411887752	0.00591479982096885	-0.000159242545590408
64.4755078125	-29.032734375	0.959150390625	-0.03041015625	-0.018763668337225	0.0274123593979794	0.00580248174767986	-0.000162893419865576
65.187861328125	-30.127236328125	0.7266796875	-0.023818359375	-0.0135600066697121	0.0254024457308444	0.00582325184754784	-0.00018216021856142
65.71318359375	-31.14	0.498427734375	-0.01775390625	-0.0081748597351844	0.0231709331990914	0.00541180752062115	-0.000109510888447156
66.062109375	-32.111982421875	0.263232421875	-0.013798828125	-0.00370082068962138	0.0209890909652501	0.00553030753648531	-6.54703000269592E-05
66.198603515625	-32.94298828125	0.045	-0.01212890625	0.00124821550691043	0.0184879813100262	0.00545339373978073	9.05048664852528E-07
66.148681640625	-33.68548828125	-0.175078125	-0.012216796875	0.00643325464765844	0.0160896330277828	0.00555428365619997	8.16537973391527E-05
65.85099609375	-34.403203125	-0.420029296875	-0.01669921875	0.0108110824182053	0.0133120693549661	0.00562438657820634	0.000139024678806076
65.4317578125	-34.91103515625	-0.634306640625	-0.021796875	0.0157320774459345	0.0106494775422015	0.00539852324699806	0.000150974389143705
64.809755859375	-35.330888671875	-0.85447265625	-0.02794921875	0.0204316730265483	0.00805675855432509	0.00559889181751168	0.000132520600265441
64.013994140625	-35.63982421875	-1.077802734375	-0.03427734375	0.0216786306692126	0.00627079074241347	0.00575945358657967	0.000150851670680674
62.9634375	-35.85498046875	-1.32591796875	-0.040166015625	0.0290181611663539	0.00197883521637248	0.00605161556744037	5.16491331281096E-05
61.6939453125	-35.94234375	-1.585546875	-0.041572265625	0.0341457527265956	-0.00121379297803027	0.00643475794883057	-3.01580622898317E-05
60.382529296875	-35.90490234375	-1.83638671875	-0.03638671875	0.0369760546588997	-0.00254110053436408	0.00676459449784174	-0.000351987231588239
58.731767578125	-35.7345703125	-2.134951171875	-0.018369140625	0.0430887380015059	-0.00699030443097123	0.00732758078680365	-0.000839655063864964
56.90337890625	-35.427041015625	-2.452587890625	0.017138671875	0.0475578376289319	-0.0102255312718536	0.00815148186797702	-0.000998161298677187
54.66779296875	-34.925185546875	-2.8283203125	0.07787109375	0.0512575231727702	-0.0134278849044515	0.0088616996329602	-0.00142422446251242
52.733583984375	-34.418232421875	-3.164150390625	0.15521484375	0.0568453396489934	-0.0171294725844668	0.00982240112079722	-0.00251806014293004
50.31703125	-33.669931640625	-3.588310546875	0.267275390625	0.0610655355537771	-0.0204669852642854	0.0106862010422635	-0.00322666722808593
47.4739453125	-32.712275390625	-4.0809375	0.41748046875	0.0658828794996689	-0.0240844801175088	0.0117247827347015	-0.00351704979123268
44.983828125	-31.7977734375	-4.528388671875	0.56390625	0.0723883079433974	-0.0284472748763344	0.0127124976242132	-0.00387963683006521
42.123076171875	-30.65150390625	-5.027080078125	0.72685546875	0.0788199825908443	-0.0328058051685696	0.0134092470378787	-0.00389624984199801
38.95716796875	-29.327255859375	-5.576484375	0.876884765625	0.0845934260822095	-0.0369484430047178	0.0135417369585284	-0.00275507551446625
35.507197265625	-27.82669921875	-6.12017578125	0.973037109375	0.0897365261882167	-0.0409241223719125	0.0130664023317863	-4.87038900153691E-05
