6.864713	6.110723	12.934151	-6.452358
7.2366155	5.9729145	12.7287235	-6.10597
7.608518	5.835106	12.523296	-5.759582
7.9804205	5.6972975	12.3178685	-5.413194
8.352323	5.559489	12.112441	-5.066806
8.75353775	5.40290325	11.92531325	-4.761847
9.1547525	5.2463175	11.7381855	-4.456888
9.55596725	5.08973175	11.55105775	-4.151929
9.957182	4.933146	11.36393	-3.84697
10.3827445	4.7603085	11.19532875	-3.58328525
10.808307	4.587471	11.0267275	-3.3196005
11.2338695	4.4146335	10.85812625	-3.05591575
11.659432	4.241796	10.689525	-2.792231
12.104194	4.05539225	10.53907025	-2.568411
12.548956	3.8689885	10.3886155	-2.344591
12.993718	3.68258475	10.23816075	-2.120771
13.43848	3.496181	10.087706	-1.896951
13.89747875	3.298852	9.95456325	-1.71066875
14.3564775	3.101523	9.8214205	-1.5243865
14.81547625	2.904194	9.68827775	-1.33810425
15.274475	2.706865	9.555135	-1.151822
15.74311125	2.501103	9.4381475	-1.00012125
16.2117475	2.295341	9.32116	-0.8484205
16.68038375	2.089579	9.2041725	-0.69671975
17.14902	1.883817	9.087185	-0.545019
17.623157	1.67190275	8.984985	-0.42455275
18.097294	1.4599885	8.882785	-0.3040865
18.571431	1.24807425	8.780585	-0.18362025
19.045568	1.03616	8.678385	-0.063154
19.52157675	0.82012775	8.58948525	0.0296175
19.9975855	0.6040955	8.5005855	0.122389
20.47359425	0.38806325	8.41168575	0.2151605
20.949603	0.172031	8.322786	0.307932
21.42437225	-0.046344	8.2456535	0.37658775
21.8991415	-0.264719	8.168521	0.4452435
22.37391075	-0.483094	8.0913885	0.51389925
22.84868	-0.701469	8.014256	0.582555
23.3196025	-0.92067075	7.94737075	0.63058975
23.790525	-1.1398725	7.8804855	0.6786245
24.2614475	-1.35907425	7.81360025	0.72665925
24.73237	-1.578276	7.746715	0.774694
25.19731125	-1.79703725	7.68861325	0.805431
25.6622525	-2.0157985	7.6305115	0.836168
26.12719375	-2.23455975	7.57240975	0.866905
26.592135	-2.453321	7.514308	0.897642
27.049391	-2.670606	7.46361475	0.91416675
27.506647	-2.887891	7.4129215	0.9306915
27.963903	-3.105176	7.36222825	0.94721625
28.421159	-3.322461	7.311535	0.963741
28.86940925	-3.5374435	7.2669865	0.9688625
29.3176595	-3.752426	7.222438	0.973984
29.76590975	-3.9674085	7.1778895	0.9791055
30.21416	-4.182391	7.133341	0.984227
30.6524165	-4.394431	7.09379675	0.98045325
31.090673	-4.606471	7.0542525	0.9766795
31.5289295	-4.818511	7.01470825	0.97290575
31.967186	-5.030551	6.975164	0.969132
32.394744	-5.23916925	6.939613	0.9586625
32.822302	-5.4477875	6.904062	0.948193
33.24986	-5.65640575	6.868511	0.9377235
33.677418	-5.865024	6.83296	0.927254
34.093806	-6.06987775	6.80052325	0.911983
34.510194	-6.2747315	6.7680865	0.896712
34.926582	-6.47958525	6.73564975	0.881441
35.34297	-6.684439	6.703213	0.86617
35.7479055	-6.88529825	6.6731375	0.8476985
36.152841	-7.0861575	6.643062	0.829227
36.5577765	-7.28701675	6.6129865	0.8107555
36.962712	-7.487876	6.582911	0.792284
37.35605975	-7.6846025	6.55456525	0.771939
37.7494075	-7.881329	6.5262195	0.751594
38.14275525	-8.0780555	6.49787375	0.731249
38.536103	-8.274782	6.469528	0.710904
38.91783825	-8.4673085	6.442392	0.68976025
39.2995735	-8.659835	6.415256	0.6686165
39.68130875	-8.8523615	6.38812	0.64747275
40.063044	-9.044888	6.360984	0.626329
40.43322	-9.23320025	6.33463925	0.60523475
40.803396	-9.4215125	6.3082945	0.5841405
41.173572	-9.60982475	6.28194975	0.56304625
41.543748	-9.798137	6.255605	0.541952
41.902469	-9.9822595	6.22972275	0.52155525
42.26119	-10.166382	6.2038405	0.5011585
42.619911	-10.3505045	6.17795825	0.48076175
42.978632	-10.534627	6.152076	0.460365
43.32603075	-10.71460875	6.12640775	0.441141
43.6734295	-10.8945905	6.1007395	0.421917
44.02082825	-11.07457225	6.07507125	0.402693
44.368227	-11.254554	6.049403	0.383469
44.70444575	-11.43045875	6.0237675	0.3657445
45.0406645	-11.6063635	5.998132	0.34802
45.37688325	-11.78226825	5.9724965	0.3302955
45.713102	-11.958173	5.946861	0.312571
46.03827725	-12.13006875	5.92113475	0.2965495
46.3634525	-12.3019645	5.8954085	0.280528
46.68862775	-12.47386025	5.86968225	0.2645065
47.013803	-12.645756	5.843956	0.248485
47.328056	-12.81370875	5.81806275	0.23426925
47.642309	-12.9816615	5.7921695	0.2200535
47.956562	-13.14961425	5.76627625	0.20583775
48.270815	-13.317567	5.740383	0.191622
48.57424325	-13.4816355	5.714285	0.179234
48.8776715	-13.645704	5.688187	0.166846
49.18109975	-13.8097725	5.662089	0.154458
49.484528	-13.973841	5.635991	0.14207
49.7771985	-14.134072	5.60968075	0.13146975
50.069869	-14.294303	5.5833705	0.1208695
50.3625395	-14.454534	5.55706025	0.11026925
50.65521	-14.614765	5.53075	0.099669
50.937159	-14.77119175	5.504243	0.09076975
51.219108	-14.9276185	5.477736	0.0818705
51.501057	-15.08404525	5.451229	0.07297125
51.783006	-15.240472	5.424722	0.064072
52.05423575	-15.3931105	5.39805075	0.056754
52.3254655	-15.545749	5.3713795	0.049436
52.59669525	-15.6983875	5.34470825	0.042118
52.867925	-15.851026	5.318037	0.0348
53.1284045	-15.9998765	5.29124525	0.02892225
53.388884	-16.148727	5.2644535	0.0230445
53.6493635	-16.2975775	5.23766175	0.01716675
53.909843	-16.446428	5.21087	0.011289
54.159511	-16.591473	5.184009	0.00669825
54.409179	-16.736518	5.157148	0.0021075
54.658847	-16.881563	5.130287	-0.00248325
54.908515	-17.026608	5.103426	-0.007074
55.147281	-17.167814	5.0765505	-0.010535
55.386047	-17.30902	5.049675	-0.013996
55.624813	-17.450226	5.0227995	-0.017457
55.863579	-17.591432	4.995924	-0.020918
56.09132725	-17.72874975	4.96908875	-0.02340575
56.3190755	-17.8660675	4.9422535	-0.0258935
56.54682375	-18.00338525	4.91541825	-0.02838125
56.774572	-18.140703	4.888583	-0.030869
56.991165	-18.27406875	4.8618425	-0.03253325
57.207758	-18.4074345	4.835102	-0.0341975
57.424351	-18.54080025	4.8083615	-0.03586175
57.640944	-18.674166	4.781621	-0.037526
57.8462265	-18.80350275	4.7550255	-0.03850725
58.051509	-18.9328395	4.72843	-0.0394885
58.2567915	-19.06217625	4.7018345	-0.04046975
58.462074	-19.191513	4.675239	-0.041451
58.6558765	-19.316733	4.64883525	-0.0418785
58.849679	-19.441953	4.6224315	-0.042306
59.0434815	-19.567173	4.59602775	-0.0427335
59.237284	-19.692393	4.569624	-0.043161
59.41942775	-19.81339775	4.543453	-0.043151
59.6015715	-19.9344025	4.517282	-0.043141
59.78371525	-20.05540725	4.491111	-0.043131
59.965859	-20.176412	4.46494	-0.043121
60.1361595	-20.293096	4.439038	-0.04277625
60.30646	-20.40978	4.413136	-0.0424315
60.4767605	-20.526464	4.387234	-0.04208675
60.647061	-20.643148	4.361332	-0.041742
60.80533125	-20.75539775	4.33572925	-0.04115125
60.9636015	-20.8676475	4.3101265	-0.0405605
61.12187175	-20.97989725	4.28452375	-0.03996975
61.280142	-21.092147	4.258921	-0.039379
61.426197	-21.1998455	4.2336425	-0.03861875
61.572252	-21.307544	4.208364	-0.0378585
61.718307	-21.4152425	4.1830855	-0.03709825
61.864362	-21.522941	4.157807	-0.036338
61.99802125	-21.62596725	4.1328725	-0.03547125
62.1316805	-21.7289935	4.107938	-0.0346045
62.26533975	-21.83201975	4.0830035	-0.03373775
62.398999	-21.935046	4.058069	-0.032871
62.52009025	-22.03327675	4.033493	-0.03195025
62.6411815	-22.1315075	4.008917	-0.0310295
62.76227275	-22.22973825	3.984341	-0.03010875
62.883364	-22.327969	3.959765	-0.029188
62.991725	-22.421281	3.935558	-0.02825425
63.100086	-22.514593	3.911351	-0.0273205
63.208447	-22.607905	3.887144	-0.02638675
63.316808	-22.701217	3.862937	-0.025453
63.41229025	-22.7894875	3.83910525	-0.02453875
63.5077725	-22.877758	3.8152735	-0.0236245
63.60325475	-22.9660285	3.79144175	-0.02271025
63.698737	-23.054299	3.76761	-0.021796
63.78120675	-23.137407	3.74415625	-0.02092525
63.8636765	-23.220515	3.7207025	-0.0200545
63.94614625	-23.303623	3.69724875	-0.01918375
64.028616	-23.386731	3.673795	-0.018313
64.09795625	-23.46455925	3.65071875	-0.01750275
64.1672965	-23.5423875	3.6276425	-0.0166925
64.23663675	-23.62021575	3.60456625	-0.01588225
64.305977	-23.698044	3.58149	-0.015072
64.3620895	-23.77047825	3.55878875	-0.0143335
64.418202	-23.8429125	3.5360875	-0.013595
64.4743145	-23.91534675	3.51338625	-0.0128565
64.530427	-23.987781	3.490685	-0.012118
64.57323375	-24.05471275	3.46835375	-0.0114575
64.6160405	-24.1216445	3.4460225	-0.010797
64.65884725	-24.18857625	3.42369125	-0.0101365
64.701654	-24.255508	3.40136	-0.009476
64.731097	-24.316834	3.37939175	-0.008896
64.76054	-24.37816	3.3574235	-0.008316
64.789983	-24.439486	3.33545525	-0.007736
64.819426	-24.500812	3.313487	-0.007156
64.835469	-24.556436	3.29187425	-0.00665575
64.851512	-24.61206	3.2702615	-0.0061555
64.867555	-24.667684	3.24864875	-0.00565525
64.883598	-24.723308	3.227036	-0.005155
64.886227	-24.7731405	3.205769	-0.0047315
64.888856	-24.822973	3.184502	-0.004308
64.891485	-24.8728055	3.163235	-0.0038845
64.894114	-24.922638	3.141968	-0.003461
64.8833365	-24.96659725	3.1210375	-0.0031095
64.872559	-25.0105565	3.100107	-0.002758
64.8617815	-25.05451575	3.0791765	-0.0024065
64.851004	-25.098475	3.058246	-0.002055
64.82684925	-25.136487	3.03764175	-0.00176975
64.8026945	-25.174499	3.0170375	-0.0014845
64.77853975	-25.212511	2.99643325	-0.00119925
64.754385	-25.250523	2.975829	-0.000914
64.7169035	-25.2825225	2.95553975	-0.00068825
64.679422	-25.314522	2.9352505	-0.0004625
64.6419405	-25.3465215	2.91496125	-0.00023675
64.604459	-25.378521	2.894672	-0.000011
64.55372225	-25.404451	2.8746875	0.000162
64.5029855	-25.430381	2.854703	0.000335
64.45224875	-25.456311	2.8347185	0.000508
64.401512	-25.482241	2.814734	0.000681
64.3376105	-25.50205225	2.79504325	0.00080825
64.273709	-25.5218635	2.7753525	0.0009355
64.2098075	-25.54167475	2.75566175	0.00106275
64.145906	-25.561486	2.735971	0.00119
64.06894775	-25.575138	2.71656275	0.001278
63.9919895	-25.58879	2.6971545	0.001366
63.91503125	-25.602442	2.67774625	0.001454
63.838073	-25.616094	2.658338	0.001542
63.74818225	-25.62355375	2.639202	0.0015975
63.6582915	-25.6310135	2.620066	0.001653
63.56840075	-25.63847325	2.60093	0.0017085
63.47851	-25.645933	2.581794	0.001764
63.3758245	-25.6471745	2.562919	0.0017925
63.273139	-25.648416	2.544044	0.001821
63.1704535	-25.6496575	2.525169	0.0018495
63.067768	-25.650899	2.506294	0.001878
62.9524365	-25.64590225	2.48767	0.0018855
62.837105	-25.6409055	2.469046	0.001893
62.7217735	-25.63590875	2.450422	0.0019005
62.606442	-25.630912	2.431798	0.001908
62.4786205	-25.6196625	2.41341425	0.0018985
62.350799	-25.608413	2.3950305	0.001889
62.2229775	-25.5971635	2.37664675	0.0018795
62.095156	-25.585914	2.358263	0.00187
61.95500525	-25.5684005	2.340109	0.00184825
61.8148545	-25.550887	2.321955	0.0018265
61.67470375	-25.5333735	2.303801	0.00180475
61.534553	-25.51586	2.285647	0.001783
61.3822335	-25.49207375	2.2677125	0.00175225
61.229914	-25.4682875	2.249778	0.0017215
61.0775945	-25.44450125	2.2318435	0.00169075
60.925275	-25.420715	2.213909	0.00166
60.76094275	-25.39064725	2.196184	0.00162375
60.5966105	-25.3605795	2.178459	0.0015875
60.43227825	-25.33051175	2.160734	0.00155125
60.267946	-25.300444	2.143009	0.001515
60.091748	-25.264084	2.125483	0.00147525
59.91555	-25.227724	2.107957	0.0014355
59.739352	-25.191364	2.090431	0.00139575
59.563154	-25.155004	2.072905	0.001356
59.37522275	-25.11233725	2.05556775	0.00131475
59.1872915	-25.0696705	2.0382305	0.0012735
58.99936025	-25.02700375	2.02089325	0.00123225
58.811429	-24.984337	2.003556	0.001191
58.61187675	-24.93534175	1.9863975	0.00115025
58.4123245	-24.8863465	1.969239	0.0011095
58.21277225	-24.83735125	1.9520805	0.00106875
58.01322	-24.788356	1.934922	0.001028
57.80213375	-24.73300125	1.9179315	0.00098875
57.5910475	-24.6776465	1.900941	0.0009495
57.37996125	-24.62229175	1.8839505	0.00091025
57.168875	-24.566937	1.86696	0.000871
56.94631025	-24.5051795	1.85012725	0.00083425
56.7237455	-24.443422	1.8332945	0.0007975
56.50118075	-24.3816645	1.81646175	0.00076075
56.278616	-24.319907	1.799629	0.000724
56.04459125	-24.2516885	1.782944	0.00069
55.8105665	-24.18347	1.766259	0.000656
55.57654175	-24.1152515	1.749574	0.000622
55.342517	-24.047033	1.732889	0.000588
55.097009	-23.97227825	1.71634125	0.0005575
54.851501	-23.8975235	1.6997935	0.000527
54.605993	-23.82276875	1.68324575	0.0004965
54.360485	-23.748014	1.666698	0.000466
54.103423	-23.66662675	1.65027775	0.00043875
53.846361	-23.5852395	1.6338575	0.0004115
53.589299	-23.50385225	1.61743725	0.00038425
53.332237	-23.422465	1.601017	0.000357
53.063501	-23.33432825	1.5847145	0.0003335
52.794765	-23.2461915	1.568412	0.00031
52.526029	-23.15805475	1.5521095	0.0002865
52.257293	-23.069918	1.535807	0.000263
51.976709	-22.97489075	1.51961325	0.000243
51.696125	-22.8798635	1.5034195	0.000223
51.415541	-22.78483625	1.48722575	0.000203
51.134957	-22.689809	1.471032	0.000183
50.8422985	-22.5877265	1.4549385	0.00016625
50.54964	-22.485644	1.438845	0.0001495
50.2569815	-22.3835615	1.4227515	0.00013275
49.964323	-22.281479	1.406658	0.000116
49.659311	-22.17215375	1.39065775	0.00010225
49.354299	-22.0628285	1.3746575	0.0000885
49.049287	-21.95350325	1.35865725	0.00007475
48.744275	-21.844178	1.342657	0.000061
48.42658375	-21.7274005	1.326744	0.00004975
48.1088925	-21.610623	1.310831	0.0000385
47.79120125	-21.4938455	1.294918	0.00002725
47.47351	-21.377068	1.279005	0.000016
47.142773	-21.252611	1.26317475	0.0000075
46.812036	-21.128154	1.2473445	-0.000001
46.481299	-21.003697	1.23151425	-0.0000095
46.150562	-20.87924	1.215684	-0.000018
45.80638475	-20.746864	1.199935	-0.0000245
45.4622075	-20.614488	1.184186	-0.000031
45.11803025	-20.482112	1.168437	-0.0000375
44.773853	-20.349736	1.152688	-0.000044
44.415828	-20.2091965	1.13702075	-0.0000485
44.057803	-20.068657	1.1213535	-0.000053
43.699778	-19.9281175	1.10568625	-0.0000575
43.341753	-19.787578	1.090019	-0.000062
42.969482	-19.638636	1.07443725	-0.000065
42.597211	-19.489694	1.0588555	-0.000068
42.22494	-19.340752	1.04327375	-0.000071
41.852669	-19.19181	1.027692	-0.000074
41.465789	-19.034245	1.01220375	-0.00007575
41.078909	-18.87668	0.9967155	-0.0000775
40.692029	-18.719115	0.98122725	-0.00007925
40.305149	-18.56155	0.965739	-0.000081
39.90336575	-18.39517625	0.95035625	-0.00008175
39.5015825	-18.2288025	0.9349735	-0.0000825
39.09979925	-18.06242875	0.91959075	-0.00008325
38.698016	-17.896055	0.904208	-0.000084
38.281143	-17.720742	0.888948	-0.00008375
37.86427	-17.545429	0.873688	-0.0000835
37.447397	-17.370116	0.858428	-0.00008325
37.030524	-17.194803	0.843168	-0.000083
36.59853	-17.010497	0.82805275	-0.00008225
36.166536	-16.826191	0.8129375	-0.0000815
35.734542	-16.641885	0.79782225	-0.00008075
35.302548	-16.457579	0.782707	-0.00008
34.855609	-16.26433125	0.767766	-0.000079
34.40867	-16.0710835	0.752825	-0.000078
33.961731	-15.87783575	0.737884	-0.000077
33.514792	-15.684588	0.722943	-0.000076
33.05335075	-15.4825835	0.70821075	-0.0000745
32.5919095	-15.280579	0.6934785	-0.000073
32.13046825	-15.0785745	0.67874625	-0.0000715
31.669027	-14.87657	0.664014	-0.00007
31.193859	-14.66616075	0.64953325	-0.00006825
30.718691	-14.4557515	0.6350525	-0.0000665
30.243523	-14.24534225	0.62057175	-0.00006475
29.768355	-14.034933	0.606091	-0.000063
29.28063625	-13.816673	0.5919105	-0.00006125
28.7929175	-13.598413	0.57773	-0.0000595
28.30519875	-13.380153	0.5635495	-0.00005775
27.81748	-13.161893	0.549369	-0.000056
27.318858	-12.93657425	0.535545	-0.000054
26.820236	-12.7112555	0.521721	-0.000052
26.321614	-12.48593675	0.507897	-0.00005
25.822992	-12.260618	0.494073	-0.000048
25.31565625	-12.0293065	0.480668	-0.00004625
24.8083205	-11.797995	0.467263	-0.0000445
24.30098475	-11.5666835	0.453858	-0.00004275
23.793649	-11.335372	0.440453	-0.000041
23.28039425	-11.099441	0.427535	-0.0000395
22.7671395	-10.86351	0.414617	-0.000038
22.25388475	-10.627579	0.401699	-0.0000365
21.74063	-10.391648	0.388781	-0.000035
21.2249105	-10.15280625	0.376423	-0.0000335
20.709191	-9.9139645	0.364065	-0.000032
20.1934715	-9.67512275	0.351707	-0.0000305
19.677752	-9.436281	0.339349	-0.000029
19.1637155	-9.19659225	0.3276265	-0.0000275
18.649679	-8.9569035	0.315904	-0.000026
18.1356425	-8.71721475	0.3041815	-0.0000245
17.621606	-8.477526	0.292459	-0.000023
17.1140995	-8.23941325	0.28144675	-0.00002175
16.606593	-8.0013005	0.2704345	-0.0000205
16.0990865	-7.76318775	0.25942225	-0.00001925
15.59158	-7.525075	0.24841	-0.000018
15.096112	-7.29130375	0.2381805	-0.00001675
14.600644	-7.0575325	0.227951	-0.0000155
14.105176	-6.82376125	0.2177215	-0.00001425
13.609708	-6.58999	0.207492	-0.000013
13.132344	-6.36362025	0.19811025	-0.00001225
12.65498	-6.1372505	0.1887285	-0.0000115
12.177616	-5.91088075	0.17934675	-0.00001075
11.700252	-5.684511	0.169965	-0.00001
11.2474095	-5.468796	0.161483	-0.000009
10.794567	-5.253081	0.153001	-0.000008
10.3417245	-5.037366	0.144519	-0.000007
9.888882	-4.821651	0.136037	-0.000006
9.46688025	-4.61981625	0.12848875	-0.0000055
9.0448785	-4.4179815	0.1209405	-0.000005
8.62287675	-4.21614675	0.11339225	-0.0000045
8.200875	-4.014312	0.105844	-0.000004
7.81512075	-3.82914975	0.09923825	-0.0000035
7.4293665	-3.6439875	0.0926325	-0.000003
7.04361225	-3.45882525	0.08602675	-0.0000025
6.657858	-3.273663	0.079421	-0.000002
6.312026	-3.10712275	0.073739	-0.0000015
5.966194	-2.9405825	0.068057	-0.000001
5.620362	-2.77404225	0.062375	-0.0000005
5.27453	-2.607502	0.056693	0
4.97031075	-2.46055825	0.05189125	0.00000025
4.6660915	-2.3136145	0.0470895	0.0000005
4.36187225	-2.16667075	0.04228775	0.00000075
4.057653	-2.019727	0.037486	0.000001
3.79502675	-1.89250975	0.0335025	0.0000015
3.5324005	-1.7652925	0.029519	0.000002
3.26977425	-1.63807525	0.0255355	0.0000025
3.007148	-1.510858	0.021552	0.000003
2.7847715	-1.40283875	0.0183115	0.000003
2.562395	-1.2948195	0.015071	0.000003
2.3400185	-1.18680025	0.0118305	0.000003
2.117642	-1.078781	0.00859	0.000003
1.933187	-0.98893725	0.00601125	0.00000325
1.748732	-0.8990935	0.0034325	0.0000035
1.564277	-0.80924975	0.00085375	0.00000375
1.379822	-0.719406	-0.001725	0.000004
1.2302595	-0.64635875	-0.003728	0.000004
1.080697	-0.5733115	-0.005731	0.000004
0.9311345	-0.50026425	-0.007734	0.000004
0.781572	-0.427217	-0.009737	0.000004
0.6634095	-0.36934675	-0.01124875	0.000004
0.545247	-0.3114765	-0.0127605	0.000004
0.4270845	-0.25360625	-0.01427225	0.000004
0.308922	-0.195736	-0.015784	0.000004
0.21839825	-0.1512775	-0.016887	0.000004
0.1278745	-0.106819	-0.01799	0.000004
0.03735075	-0.0623605	-0.019093	0.000004
-0.053173	-0.017902	-0.020196	0.000004
-0.1199365	0.01498125	-0.0209675	0.000004
-0.1867	0.0478645	-0.021739	0.000004
-0.2534635	0.08074775	-0.0225105	0.000004
-0.320227	0.113631	-0.023282	0.000004